100.00000,10.00000
102.00000,17.50000
104.00000,17.50000
106.00000,23.65011
108.00000,21.25199
110.00000,17.73837
112.00000,12.21866
114.00000,11.34287
116.00000,11.44240
118.00000,9.27054
120.00000,9.18128
122.00000,14.20003
124.00000,23.79403
126.00000,29.87511
128.00000,27.91883
130.00000,23.20543
132.00000,21.73237
134.00000,18.69806
136.00000,16.30040
138.00000,17.00362
140.00000,19.10576
142.00000,22.05673
144.00000,22.54093
146.00000,25.14724
148.00000,33.33884
150.00000,43.58455
152.00000,47.37464
154.00000,46.22012
156.00000,49.01483
158.00000,63.89375
160.00000,84.24005
162.00000,104.34524
164.00000,132.29192
166.00000,167.64893
168.00000,209.21619
170.00000,250.75624
172.00000,296.88034
174.00000,357.14587
176.00000,434.13287
178.00000,532.24866
180.00000,656.52515
182.00000,818.19427
184.00000,1029.07678
186.00000,1289.29944
188.00000,1592.71765
190.00000,1934.90051
192.00000,2310.68872
194.00000,2711.19775
196.00000,3109.91333
198.00000,3471.31104
200.00000,3759.27173
202.00000,3950.53540
204.00000,4052.99585
206.00000,4094.15112
208.00000,4106.61963
210.00000,4102.22412
212.00000,4081.12500
214.00000,4046.86304
216.00000,4007.42993
218.00000,3965.54932
220.00000,3906.99316
222.00000,3810.52197
224.00000,3653.57544
226.00000,3419.72437
228.00000,3102.87061
230.00000,2722.20850
232.00000,2317.17114
234.00000,1932.87500
236.00000,1609.77942
238.00000,1361.29565
240.00000,1172.99866
242.00000,1027.41370
244.00000,912.37946
246.00000,830.72302
248.00000,777.43744
250.00000,740.90741
252.00000,707.43390
254.00000,670.88470
256.00000,627.55573
258.00000,579.61652
260.00000,540.28772
262.00000,504.52328
264.00000,467.84207
266.00000,430.20779
268.00000,392.49997
270.00000,362.19812
272.00000,338.16306
274.00000,322.16748
276.00000,316.67493
278.00000,324.79956
280.00000,350.93793
282.00000,392.97739
284.00000,447.28339
286.00000,509.75806
288.00000,588.14966
290.00000,680.92822
292.00000,774.16467
294.00000,868.87512
296.00000,952.54871
298.00000,1018.11853
300.00000,1066.17053
302.00000,1104.34375
304.00000,1141.08081
306.00000,1160.17285
308.00000,1161.80640
310.00000,1148.48340
312.00000,1134.65552
314.00000,1133.71497
316.00000,1125.51501
318.00000,1091.55493
320.00000,1036.08545
322.00000,950.24420
324.00000,843.83765
326.00000,731.29449
328.00000,615.09296
330.00000,508.17935
332.00000,413.47525
334.00000,331.16083
336.00000,263.52902
338.00000,209.07806
340.00000,167.01613
342.00000,130.51015
344.00000,98.59519
346.00000,74.74440
348.00000,59.05608
350.00000,52.87792
352.00000,50.09707
354.00000,44.49947
356.00000,38.70163
358.00000,34.64921
360.00000,32.68954
362.00000,31.53841
364.00000,29.35728
366.00000,27.45074
368.00000,27.13158
370.00000,30.43729
372.00000,36.02480
374.00000,40.85720
376.00000,40.85371
378.00000,33.37493
380.00000,22.13385
382.00000,16.26509
384.00000,15.82747
386.00000,18.60889
388.00000,21.42093
390.00000,22.12018
392.00000,21.25709
394.00000,19.90273
396.00000,21.25551
398.00000,22.17789
400.00000,23.15521
402.00000,25.30470
404.00000,24.36764
406.00000,24.74613
408.00000,26.68270
410.00000,29.22335
412.00000,35.64574
414.00000,40.01017
416.00000,39.24986
418.00000,39.37853
420.00000,37.82448
422.00000,35.57174
424.00000,32.99372
426.00000,32.37830
428.00000,32.49308
430.00000,27.97171
432.00000,19.91999
434.00000,18.19683
436.00000,24.67035
438.00000,29.21394
440.00000,31.50519
442.00000,31.12735
444.00000,32.71465
446.00000,32.70238
448.00000,30.91943
450.00000,30.02631
452.00000,33.08504
454.00000,37.72157
456.00000,39.39769
458.00000,40.01883
460.00000,43.33247
462.00000,46.18514
464.00000,50.94098
466.00000,53.82206
468.00000,51.44217
470.00000,50.95384
472.00000,50.13499
474.00000,50.20592
476.00000,51.33386
478.00000,49.57919
480.00000,49.16015
482.00000,50.93972
484.00000,49.59420
486.00000,44.71956
488.00000,40.76767
490.00000,44.97094
492.00000,51.18354
494.00000,51.26308
496.00000,42.84059
498.00000,34.66695
500.00000,27.06792
502.00000,25.21188
504.00000,28.35540
506.00000,34.71721
508.00000,40.70167
510.00000,44.81668
512.00000,47.29845
514.00000,46.12829
516.00000,49.35227
518.00000,51.52047
520.00000,50.62508
522.00000,48.65158
524.00000,44.38171
526.00000,39.63457
528.00000,35.53534
530.00000,39.49807
532.00000,44.95988
534.00000,50.84975
536.00000,54.26740
538.00000,55.66911
540.00000,59.12048
542.00000,59.95359
544.00000,55.72856
546.00000,52.49570
548.00000,50.14534
550.00000,49.67935
552.00000,49.13745
554.00000,47.67911
556.00000,45.97697
558.00000,44.33646
560.00000,43.01199
562.00000,41.49019
564.00000,41.51562
566.00000,40.77684
568.00000,37.86058
570.00000,36.38026
572.00000,38.45687
574.00000,39.33535
576.00000,33.42506
578.00000,29.15019
580.00000,28.33009
582.00000,34.79527
584.00000,39.69464
586.00000,33.93919
588.00000,26.62683
590.00000,21.70105
592.00000,21.03434
594.00000,23.92940
596.00000,25.67267
598.00000,28.66842
600.00000,35.47563
602.00000,45.16329
604.00000,47.74329
606.00000,45.18399
608.00000,38.17648
610.00000,27.19895
612.00000,25.12438
614.00000,23.29021
616.00000,26.20448
618.00000,37.39129
620.00000,40.57161
622.00000,40.42908
624.00000,33.92709
626.00000,25.62201
628.00000,22.49354
630.00000,22.87300
632.00000,24.77328
634.00000,26.44361
636.00000,28.03625
638.00000,25.76906
640.00000,25.06766
642.00000,27.69194
644.00000,30.11838
646.00000,33.27225
648.00000,37.85208
650.00000,41.76159
652.00000,39.39965
654.00000,38.05375
656.00000,37.09377
658.00000,40.21913
660.00000,41.35520
662.00000,35.63379
664.00000,32.72461
666.00000,29.58324
668.00000,26.33093
670.00000,28.29152
672.00000,26.89907
674.00000,30.27484
676.00000,35.47887
678.00000,38.91812
680.00000,37.52162
682.00000,34.84979
684.00000,31.25701
686.00000,28.22966
688.00000,25.87027
690.00000,19.97266
692.00000,14.30762
694.00000,13.87591
696.00000,22.59137
698.00000,34.80656
700.00000,39.49904
702.00000,38.71511
704.00000,38.21690
706.00000,35.12232
708.00000,35.15401
710.00000,30.14146
712.00000,29.20998
714.00000,35.78999
716.00000,34.99888
718.00000,36.84660
720.00000,34.97408
722.00000,34.31380
724.00000,39.66988
726.00000,41.18864
728.00000,39.69801
730.00000,36.42877
732.00000,36.49902
734.00000,39.57682
736.00000,39.17663
738.00000,34.05946
740.00000,26.02289
742.00000,20.07736
744.00000,23.26179
746.00000,23.47228
748.00000,23.38859
750.00000,21.91992
752.00000,18.82726
754.00000,22.91962
756.00000,25.26613
758.00000,29.37426
760.00000,33.52953
762.00000,30.53119
764.00000,26.01230
766.00000,23.97871
768.00000,27.76871
770.00000,33.28398
772.00000,35.97384
774.00000,33.47266
776.00000,29.11213
778.00000,25.07934
780.00000,23.48953
782.00000,26.14800
784.00000,27.52324
786.00000,27.68896
788.00000,26.97849
790.00000,26.18168
792.00000,24.65656
794.00000,27.51178
796.00000,28.13715
798.00000,28.47469
800.00000,30.76697
802.00000,32.47273
804.00000,41.43987
806.00000,45.43977
808.00000,44.38203
810.00000,41.83231
812.00000,34.59475
814.00000,33.70187
816.00000,30.88876
818.00000,28.15245
820.00000,28.99418
822.00000,31.14328
824.00000,30.21900
826.00000,26.08751
828.00000,20.13924
830.00000,16.91455
832.00000,19.41914
834.00000,26.63460
836.00000,31.75386
838.00000,36.81422
840.00000,38.24077
842.00000,29.99232
844.00000,27.60494
846.00000,31.50921
848.00000,41.88074
850.00000,47.15693
852.00000,41.36463
854.00000,32.24746
856.00000,27.15465
858.00000,25.01264
860.00000,24.88308
862.00000,28.18158
864.00000,33.56782
866.00000,41.66449
868.00000,39.90322
870.00000,32.47577
872.00000,27.11187
874.00000,27.06313
876.00000,34.02380
878.00000,33.31222
880.00000,31.56811
882.00000,30.72209
884.00000,30.11416
886.00000,34.47285
888.00000,35.72942
890.00000,37.76301
892.00000,36.98009
894.00000,32.29811
896.00000,29.17986
898.00000,30.59781
900.00000,29.57069
902.00000,33.98902
904.00000,38.48286
906.00000,38.44562
908.00000,37.52826
910.00000,26.02840
912.00000,27.03499
914.00000,30.38106
916.00000,35.99818
918.00000,43.48515
920.00000,36.77042
922.00000,37.69913
924.00000,32.51112
926.00000,29.90864
928.00000,29.16384
930.00000,27.88997
932.00000,35.33271
934.00000,38.00374
936.00000,44.83971
938.00000,40.94350
940.00000,29.60789
942.00000,28.96440
944.00000,30.04728
946.00000,42.48306
948.00000,42.78577
950.00000,35.82965
952.00000,32.68145
954.00000,33.64086
956.00000,35.86800
958.00000,37.28751
960.00000,31.34086
962.00000,28.62493
964.00000,30.80295
966.00000,32.85644
968.00000,37.60999
970.00000,35.46781
972.00000,32.54408
974.00000,31.09043
976.00000,30.37934
978.00000,30.09929
980.00000,31.59152
982.00000,27.40769
984.00000,27.27225
986.00000,28.51815
988.00000,30.72536
990.00000,33.85316
992.00000,36.52047
994.00000,33.36300
996.00000,30.89196
998.00000,27.56462
1000.00000,26.59164
1002.00000,30.34828
1004.00000,34.43357
1006.00000,29.90064
1008.00000,29.24000
1010.00000,24.99447
1012.00000,27.07980
1014.00000,31.85741
1016.00000,36.19204
1018.00000,42.36817
1020.00000,40.64591
1022.00000,45.96214
1024.00000,46.90546
1026.00000,51.95185
1028.00000,54.22871
1030.00000,47.51991
1032.00000,46.93165
1034.00000,40.74876
1036.00000,35.65113
1038.00000,30.42446
1040.00000,30.52853
1042.00000,35.03933
1044.00000,35.36662
1046.00000,32.35012
1048.00000,29.71239
1050.00000,31.18118
1052.00000,36.06646
1054.00000,37.63370
1056.00000,35.71643
1058.00000,34.34560
1060.00000,33.72472
1062.00000,38.54301
1064.00000,43.34171
1066.00000,47.02573
1068.00000,45.42516
1070.00000,41.72927
1072.00000,43.23193
1074.00000,48.34295
1076.00000,52.70352
1078.00000,55.01720
1080.00000,50.24244
1082.00000,46.66415
1084.00000,48.78860
1086.00000,52.81372
1088.00000,53.80031
1090.00000,54.85629
1092.00000,58.49171
1094.00000,57.99746
1096.00000,64.01210
1098.00000,66.08777
1100.00000,62.30002
1102.00000,63.17001
1104.00000,64.64133
1106.00000,62.53217
1108.00000,61.46656
1110.00000,58.98103
1112.00000,59.15442
1114.00000,61.21626
1116.00000,60.90042
1118.00000,58.14004
1120.00000,58.61045
1122.00000,63.79837
1124.00000,72.31621
1126.00000,66.49476
1128.00000,60.05610
1130.00000,57.42579
1132.00000,57.36112
1134.00000,64.32661
1136.00000,70.31791
1138.00000,66.54207
1140.00000,72.43330
1142.00000,70.23712
1144.00000,74.97520
1146.00000,74.75959
1148.00000,66.92982
1150.00000,66.43705
1152.00000,66.95049
1154.00000,74.47529
1156.00000,82.96752
1158.00000,89.42477
1160.00000,93.91429
1162.00000,91.41414
1164.00000,83.94791
1166.00000,78.05241
1168.00000,74.71390
1170.00000,74.68129
1172.00000,79.74387
1174.00000,83.47227
1176.00000,90.63548
1178.00000,91.34476
1180.00000,91.52297
1182.00000,93.51602
1184.00000,92.86620
1186.00000,92.20472
1188.00000,88.54428
1190.00000,83.74475
1192.00000,86.38187
1194.00000,89.71735
1196.00000,98.81104
1198.00000,101.24248
1200.00000,97.82445
1202.00000,97.68105
1204.00000,96.81329
1206.00000,98.87561
1208.00000,103.00795
1210.00000,96.99590
1212.00000,99.63953
1214.00000,98.94521
1216.00000,99.55159
1218.00000,99.38116
1220.00000,100.99239
1222.00000,111.00975
1224.00000,120.07867
1226.00000,125.95092
1228.00000,130.19308
1230.00000,126.66441
1232.00000,122.97581
1234.00000,118.11806
1236.00000,118.68303
1238.00000,120.62481
1240.00000,123.07724
1242.00000,125.56702
1244.00000,119.60281
1246.00000,117.02277
1248.00000,112.89456
1250.00000,108.34129
1252.00000,114.17838
1254.00000,113.72749
1256.00000,116.28187
1258.00000,113.17870
1260.00000,109.54104
1262.00000,109.87222
1264.00000,107.18867
1266.00000,113.39754
1268.00000,115.81864
1270.00000,116.22484
1272.00000,125.80553
1274.00000,124.71500
1276.00000,125.72769
1278.00000,123.11327
1280.00000,120.66231
1282.00000,118.45258
1284.00000,115.70898
1286.00000,116.37371
1288.00000,118.47687
1290.00000,126.33948
1292.00000,126.69303
1294.00000,126.03720
1296.00000,121.93566
1298.00000,121.05231
1300.00000,119.12259
1302.00000,119.28876
1304.00000,120.02087
1306.00000,125.54726
1308.00000,129.11682
1310.00000,124.82025
1312.00000,124.17129
1314.00000,121.23503
1316.00000,133.35808
1318.00000,140.68394
1320.00000,151.04060
1322.00000,149.60387
1324.00000,149.15175
1326.00000,144.69475
1328.00000,145.01306
1330.00000,147.47009
1332.00000,147.36905
1334.00000,147.37732
1336.00000,143.58922
1338.00000,139.79961
1340.00000,140.84792
1342.00000,136.45331
1344.00000,136.25446
1346.00000,128.67523
1348.00000,125.87710
1350.00000,131.96042
1352.00000,131.55446
1354.00000,136.92145
1356.00000,136.11423
1358.00000,136.47577
1360.00000,138.93390
1362.00000,138.41624
1364.00000,139.64536
1366.00000,135.41833
1368.00000,130.75041
1370.00000,122.71056
1372.00000,120.12815
1374.00000,123.80665
1376.00000,125.05434
1378.00000,130.72087
1380.00000,123.49696
1382.00000,116.30493
1384.00000,113.50985
1386.00000,113.76553
1388.00000,119.19244
1390.00000,121.03615
1392.00000,120.10891
1394.00000,119.29861
1396.00000,117.24019
1398.00000,120.55975
1400.00000,121.07834
1402.00000,116.56189
1404.00000,114.89577
1406.00000,118.68837
1408.00000,120.87256
1410.00000,121.90399
1412.00000,118.53342
1414.00000,127.39868
1416.00000,125.86317
1418.00000,129.79964
1420.00000,119.21750
1422.00000,115.37608
1424.00000,112.49751
1426.00000,109.10051
1428.00000,111.76033
1430.00000,110.70769
1432.00000,110.29826
1434.00000,109.53261
1436.00000,109.54665
1438.00000,108.97572
1440.00000,107.75645
1442.00000,108.12052
1444.00000,110.03946
1446.00000,111.95987
1448.00000,110.07038
1450.00000,113.02192
1452.00000,112.57361
1454.00000,115.26043
1456.00000,112.57403
1458.00000,112.06009
1460.00000,106.90743
1462.00000,104.59511
1464.00000,103.57453
1466.00000,102.51263
1468.00000,102.84034
1470.00000,101.26983
1472.00000,96.21873
1474.00000,95.12570
1476.00000,98.93184
1478.00000,96.60246
1480.00000,90.22997
1482.00000,84.95770
1484.00000,82.20434
1486.00000,81.33385
1488.00000,79.14024
1490.00000,78.36793
1492.00000,68.13519
1494.00000,83.28722
1496.00000,76.31116
1498.00000,90.15516
1500.00000,86.35485
1502.00000,91.11310
1504.00000,85.57261
1506.00000,79.26501
1508.00000,70.72737
1510.00000,68.51100
1512.00000,68.23280
1514.00000,71.52599
1516.00000,77.84052
1518.00000,83.21078
1520.00000,84.92419
1522.00000,84.87965
1524.00000,78.63148
1526.00000,76.05282
1528.00000,77.55440
1530.00000,77.88570
1532.00000,80.93474
1534.00000,80.30663
1536.00000,77.25899
1538.00000,78.66130
1540.00000,79.56431
1542.00000,81.38344
1544.00000,82.94084
1546.00000,83.16428
1548.00000,87.19441
1550.00000,86.40734
1552.00000,86.55293
1554.00000,85.03757
1556.00000,81.48196
1558.00000,77.82324
1560.00000,72.32215
1562.00000,71.89305
1564.00000,73.67467
1566.00000,73.87898
1568.00000,77.39336
1570.00000,77.51639
1572.00000,80.09729
1574.00000,71.94962
1576.00000,67.93505
1578.00000,67.68481
1580.00000,66.64198
1582.00000,73.79294
1584.00000,71.54215
1586.00000,72.51809
1588.00000,66.85429
1590.00000,63.26808
1592.00000,61.43006
1594.00000,62.17720
1596.00000,63.18516
1598.00000,62.72398
1600.00000,62.21326
1602.00000,56.81119
1604.00000,49.74452
1606.00000,53.78298
1608.00000,52.71571
1610.00000,57.94271
1612.00000,55.25818
1614.00000,58.94133
1616.00000,58.53703
1618.00000,65.44279
1620.00000,61.89355
1622.00000,67.67726
1624.00000,59.53962
1626.00000,57.62447
1628.00000,51.05372
1630.00000,44.23349
1632.00000,50.45981
1634.00000,45.29666
1636.00000,47.87158
1638.00000,48.81673
1640.00000,47.79342
1642.00000,46.58463
1644.00000,44.41024
1646.00000,49.77781
1648.00000,54.03944
1650.00000,59.40053
1652.00000,53.32956
1654.00000,51.63526
1656.00000,48.32339
1658.00000,46.86281
1660.00000,46.34676
1662.00000,42.57555
1664.00000,47.07886
1666.00000,48.84935
1668.00000,46.82188
1670.00000,44.19349
1672.00000,36.13310
1674.00000,34.61622
1676.00000,37.83396
1678.00000,39.27058
1680.00000,38.45631
1682.00000,36.27332
1684.00000,29.15415
1686.00000,24.91356
1688.00000,25.24295
1690.00000,20.70035
1692.00000,22.33894
1694.00000,27.19328
1696.00000,24.38057
1698.00000,26.38629
1700.00000,23.88124
1702.00000,22.07555
1704.00000,24.31079
1706.00000,20.97818
1708.00000,22.08412
1710.00000,23.66967
1712.00000,23.30069
1714.00000,25.39101
1716.00000,21.46227
1718.00000,20.68797
1720.00000,23.36389
1722.00000,23.86817
1724.00000,23.30126
1726.00000,20.94404
1728.00000,18.18857
1730.00000,17.58270
1732.00000,18.80569
1734.00000,22.80712
1736.00000,23.84751
1738.00000,27.28277
1740.00000,30.32598
1742.00000,30.62573
1744.00000,29.43514
1746.00000,25.45794
1748.00000,26.99227
1750.00000,25.18874
1752.00000,23.87024
1754.00000,22.04163
1756.00000,23.75183
1758.00000,26.69887
1760.00000,29.25731
1762.00000,27.79733
1764.00000,27.31062
1766.00000,28.38699
1768.00000,27.40452
1770.00000,27.76953
1772.00000,24.30859
1774.00000,29.12828
1776.00000,28.18384
1778.00000,29.87895
1780.00000,24.35726
1782.00000,27.90803
1784.00000,23.60770
1786.00000,26.01628
1788.00000,24.35573
1790.00000,24.31960
1792.00000,24.48659
1794.00000,23.34350
1796.00000,20.99622
1798.00000,19.21181
1800.00000,18.01271
1802.00000,19.94335
1804.00000,24.27279
1806.00000,27.44976
1808.00000,30.97742
1810.00000,32.79804
1812.00000,32.77089
1814.00000,28.24576
1816.00000,23.62676
1818.00000,24.89907
1820.00000,24.65038
1822.00000,23.45139
1824.00000,22.65136
1826.00000,22.21539
1828.00000,22.41534
1830.00000,24.48747
1832.00000,22.91321
1834.00000,25.52050
1836.00000,28.35827
1838.00000,25.56031
1840.00000,25.51682
1842.00000,23.39659
1844.00000,23.17246
1846.00000,25.36489
1848.00000,27.49029
1850.00000,26.45997
1852.00000,23.80135
1854.00000,20.52203
1856.00000,22.90465
1858.00000,27.83887
1860.00000,33.10729
1862.00000,33.98772
1864.00000,29.80203
1866.00000,28.59854
1868.00000,27.45585
1870.00000,26.66147
1872.00000,26.34717
1874.00000,26.54345
1876.00000,28.03110
1878.00000,30.41516
1880.00000,32.16805
1882.00000,28.70623
1884.00000,29.61958
1886.00000,28.78702
1888.00000,25.14107
1890.00000,27.98040
1892.00000,25.37400
1894.00000,26.76827
1896.00000,26.97193
1898.00000,29.01843
1900.00000,33.91700
1902.00000,38.62728
1904.00000,29.93936
1906.00000,28.70823
1908.00000,23.96296
1910.00000,23.94597
1912.00000,24.86481
1914.00000,22.65701
1916.00000,21.55830
1918.00000,23.37272
1920.00000,22.44449
1922.00000,24.37436
1924.00000,22.49401
1926.00000,22.23430
1928.00000,20.21844
1930.00000,21.83216
1932.00000,24.06830
1934.00000,22.62605
1936.00000,23.99506
1938.00000,21.62815
1940.00000,19.72396
1942.00000,20.34794
1944.00000,18.75659
1946.00000,19.53026
1948.00000,22.79919
1950.00000,24.65125
1952.00000,27.15344
1954.00000,26.74452
1956.00000,25.94101
1958.00000,24.19837
1960.00000,26.53960
1962.00000,24.99423
1964.00000,23.69556
1966.00000,24.30491
1968.00000,21.59335
1970.00000,25.94130
1972.00000,25.45132
1974.00000,24.93382
1976.00000,24.69296
1978.00000,27.70452
1980.00000,26.04349
1982.00000,23.93776
1984.00000,19.33773
1986.00000,18.41176
1988.00000,25.39046
1990.00000,30.78701
1992.00000,29.97622
1994.00000,29.39231
1996.00000,21.41201
1998.00000,24.40855
2000.00000,23.36158
2002.00000,23.40856
2004.00000,22.51373
2006.00000,20.63091
2008.00000,21.11408
2010.00000,24.98382
2012.00000,27.74648
2014.00000,31.72428
2016.00000,33.93034
2018.00000,30.62494
2020.00000,31.05558
2022.00000,27.53935
2024.00000,27.04730
2026.00000,26.64252
2028.00000,24.49472
2030.00000,23.90752
2032.00000,23.92455
2034.00000,25.83794
2036.00000,27.53864
2038.00000,27.36337
2040.00000,27.20956
2042.00000,26.61231
2044.00000,23.58276
2046.00000,26.13759
2048.00000,24.55112
2050.00000,25.59219
2052.00000,24.39900
2054.00000,20.05167
2056.00000,19.79374
2058.00000,18.64296
2060.00000,20.07879
2062.00000,22.45201
2064.00000,23.11214
2066.00000,23.15836
2068.00000,23.04313
2070.00000,21.72038
2072.00000,21.77916
2074.00000,24.43560
2076.00000,24.49296
2078.00000,27.56473
2080.00000,27.91410
2082.00000,31.91624
2084.00000,30.01177
2086.00000,29.84768
2088.00000,28.07617
2090.00000,22.85916
2092.00000,21.21747
2094.00000,21.39696
2096.00000,23.33028
2098.00000,25.49526
2100.00000,23.42386
2102.00000,24.65142
2104.00000,24.14854
2106.00000,24.89419
2108.00000,25.16866
2110.00000,27.42896
2112.00000,30.31068
2114.00000,27.39081
2116.00000,25.70949
2118.00000,25.65987
2120.00000,26.64064
2122.00000,29.94874
2124.00000,27.84444
2126.00000,29.02114
2128.00000,25.49926
2130.00000,24.02545
2132.00000,22.80105
2134.00000,20.84344
2136.00000,20.69782
2138.00000,23.08232
2140.00000,23.54796
2142.00000,23.73588
2144.00000,23.05408
2146.00000,23.83098
2148.00000,24.91151
2150.00000,23.67508
2152.00000,23.73219
2154.00000,22.61825
2156.00000,22.78604
2158.00000,23.46521
2160.00000,24.19676
2162.00000,24.37480
2164.00000,26.00581
2166.00000,24.05382
2168.00000,23.60571
2170.00000,23.86466
2172.00000,22.14914
2174.00000,24.57524
2176.00000,25.14727
2178.00000,26.42536
2180.00000,28.42506
2182.00000,26.78946
2184.00000,28.95952
2186.00000,24.32303
2188.00000,24.47862
2190.00000,23.94491
2192.00000,21.87424
2194.00000,22.47933
2196.00000,21.54979
2198.00000,21.24894
2200.00000,20.83621
2202.00000,20.19376
2204.00000,24.00975
2206.00000,26.14380
2208.00000,24.89051
2210.00000,22.27968
2212.00000,20.55416
2214.00000,19.98080
2216.00000,23.19714
2218.00000,24.25225
2220.00000,24.73960
2222.00000,25.51479
2224.00000,24.09088
2226.00000,27.47646
2228.00000,28.46685
2230.00000,31.06094
2232.00000,27.65671
2234.00000,28.97160
2236.00000,26.01030
2238.00000,29.67126
2240.00000,29.00644
2242.00000,27.43191
2244.00000,24.70567
2246.00000,22.59350
2248.00000,22.58619
2250.00000,23.76912
2252.00000,22.97651
2254.00000,25.31424
2256.00000,26.49057
2258.00000,27.80964
2260.00000,24.57473
2262.00000,24.37687
2264.00000,22.46158
2266.00000,25.14527
2268.00000,26.00969
2270.00000,27.16786
2272.00000,27.29914
2274.00000,27.31347
2276.00000,25.80831
2278.00000,26.12499
2280.00000,27.74719
2282.00000,25.68204
2284.00000,26.27757
2286.00000,25.04192
2288.00000,25.80320
2290.00000,27.09206
2292.00000,24.16263
2294.00000,28.36571
2296.00000,27.17958
2298.00000,30.81179
2300.00000,29.10921
2302.00000,29.51345
2304.00000,29.88050
2306.00000,29.22400
2308.00000,27.60059
2310.00000,26.57952
2312.00000,27.14162
2314.00000,25.93942
2316.00000,27.05378
2318.00000,26.87560
2320.00000,25.51312
2322.00000,27.67846
2324.00000,27.53576
2326.00000,30.71856
2328.00000,31.42430
2330.00000,33.37902
2332.00000,29.59681
2334.00000,29.21364
2336.00000,26.86182
2338.00000,25.13970
2340.00000,26.21338
2342.00000,25.38494
2344.00000,27.31383
2346.00000,29.24773
2348.00000,28.89184
2350.00000,27.61861
2352.00000,26.85089
2354.00000,30.66282
2356.00000,30.51287
2358.00000,30.84039
2360.00000,29.93543
2362.00000,29.51952
2364.00000,32.84631
2366.00000,31.60334
2368.00000,35.17473
2370.00000,34.43553
2372.00000,36.75204
2374.00000,35.51669
2376.00000,33.08183
2378.00000,32.70916
2380.00000,32.44510
2382.00000,32.32464
2384.00000,34.51119
2386.00000,31.12035
2388.00000,32.39646
2390.00000,32.41755
2392.00000,34.07374
2394.00000,33.26292
2396.00000,32.85242
2398.00000,31.50622
2400.00000,30.84002
2402.00000,31.39291
2404.00000,29.68540
2406.00000,29.36634
2408.00000,29.56889
2410.00000,30.57561
2412.00000,34.01482
2414.00000,32.62355
2416.00000,32.77692
2418.00000,31.12653
2420.00000,29.91357
2422.00000,29.13469
2424.00000,28.69837
2426.00000,25.59768
2428.00000,30.54524
2430.00000,27.91741
2432.00000,32.02094
2434.00000,32.88870
2436.00000,32.22673
2438.00000,32.83064
2440.00000,32.83526
2442.00000,32.51210
2444.00000,30.91499
2446.00000,30.72614
2448.00000,30.23483
2450.00000,30.21155
2452.00000,27.24292
2454.00000,26.42450
2456.00000,27.38490
2458.00000,28.11829
2460.00000,31.58640
2462.00000,31.34632
2464.00000,33.11332
2466.00000,31.49986
2468.00000,30.21087
2470.00000,28.94105
2472.00000,28.98649
2474.00000,29.97532
2476.00000,32.06742
2478.00000,32.20240
2480.00000,31.66202
2482.00000,31.64968
2484.00000,32.06462
2486.00000,32.28349
2488.00000,30.15041
2490.00000,27.56984
2492.00000,26.38141
2494.00000,25.70479
2496.00000,27.21311
2498.00000,28.67904
2500.00000,28.52077
2502.00000,29.11652
2504.00000,28.45742
2506.00000,27.14527
2508.00000,28.36757
2510.00000,29.74992
2512.00000,29.96709
2514.00000,31.03765
2516.00000,28.62315
2518.00000,28.58978
2520.00000,26.38923
2522.00000,29.30001
2524.00000,28.75642
2526.00000,31.39880
2528.00000,32.01929
2530.00000,32.97421
2532.00000,32.89600
2534.00000,31.04451
2536.00000,29.30493
2538.00000,25.86894
2540.00000,25.52197
2542.00000,23.85472
2544.00000,25.75984
2546.00000,26.39277
2548.00000,27.53958
2550.00000,28.21708
2552.00000,27.13656
2554.00000,24.42460
2556.00000,26.73801
2558.00000,25.87339
2560.00000,30.32647
2562.00000,28.97028
2564.00000,31.29175
2566.00000,30.46573
2568.00000,30.85265
2570.00000,29.17142
2572.00000,29.45292
2574.00000,30.94113
2576.00000,32.38924
2578.00000,30.52973
2580.00000,28.76269
2582.00000,25.75619
2584.00000,24.95491
2586.00000,26.35318
2588.00000,25.01724
2590.00000,28.42406
2592.00000,27.18640
2594.00000,30.55963
2596.00000,26.70281
2598.00000,26.51396
2600.00000,25.01975
2602.00000,24.29952
2604.00000,25.85622
2606.00000,24.18582
2608.00000,23.33165
2610.00000,27.51496
2612.00000,24.63093
2614.00000,28.13397
2616.00000,25.64428
2618.00000,24.12009
2620.00000,23.43528
2622.00000,24.46667
2624.00000,26.14738
2626.00000,26.53046
2628.00000,26.19661
2630.00000,22.44364
2632.00000,24.54126
2634.00000,24.68074
2636.00000,25.88730
2638.00000,26.95430
2640.00000,26.59052
2642.00000,28.59507
2644.00000,29.02955
2646.00000,27.82549
2648.00000,24.04252
2650.00000,21.85862
2652.00000,24.07071
2654.00000,25.03145
2656.00000,28.05069
2658.00000,27.49810
2660.00000,29.67014
2662.00000,28.31833
2664.00000,28.50852
2666.00000,26.80478
2668.00000,28.38190
2670.00000,28.34438
2672.00000,29.15033
2674.00000,30.26805
2676.00000,28.32821
2678.00000,28.22738
2680.00000,27.02246
2682.00000,26.34622
2684.00000,25.95309
2686.00000,24.49184
2688.00000,25.14079
2690.00000,27.28054
2692.00000,28.01266
2694.00000,28.04134
2696.00000,26.37434
2698.00000,24.98805
2700.00000,25.48249
2702.00000,25.51830
2704.00000,28.15181
2706.00000,28.14001
2708.00000,28.58306
2710.00000,28.07632
2712.00000,27.53774
2714.00000,27.59177
2716.00000,27.85859
2718.00000,28.90344
2720.00000,29.97553
2722.00000,29.34025
2724.00000,31.16897
2726.00000,32.11474
2728.00000,32.97263
2730.00000,30.08956
2732.00000,28.83391
2734.00000,31.02868
2736.00000,29.76569
2738.00000,32.72779
2740.00000,28.79655
2742.00000,30.57658
2744.00000,32.50914
2746.00000,32.73829
2748.00000,31.16561
2750.00000,31.78856
2752.00000,30.16346
2754.00000,31.29178
2756.00000,30.39673
2758.00000,32.69196
2760.00000,34.78716
2762.00000,34.40885
2764.00000,34.66885
2766.00000,35.01429
2768.00000,35.49210
2770.00000,35.55008
2772.00000,36.46413
2774.00000,36.03744
2776.00000,37.63293
2778.00000,37.41220
2780.00000,37.17270
2782.00000,36.48674
2784.00000,37.07277
2786.00000,36.10354
2788.00000,38.74904
2790.00000,38.89096
2792.00000,37.75294
2794.00000,37.84312
2796.00000,38.09495
2798.00000,38.16967
2800.00000,39.24060
2802.00000,41.20075
2804.00000,39.77512
2806.00000,42.18899
2808.00000,39.29231
2810.00000,40.84760
2812.00000,40.80090
2814.00000,42.51023
2816.00000,43.79059
2818.00000,43.15921
2820.00000,43.40172
2822.00000,43.29852
2824.00000,42.77668
2826.00000,43.57028
2828.00000,43.74413
2830.00000,45.78256
2832.00000,46.73873
2834.00000,47.58659
2836.00000,45.30232
2838.00000,47.90583
2840.00000,47.75790
2842.00000,49.43683
2844.00000,49.56649
2846.00000,48.36872
2848.00000,47.73531
2850.00000,47.53886
2852.00000,49.62172
2854.00000,52.08566
2856.00000,54.33445
2858.00000,53.99067
2860.00000,53.39741
2862.00000,50.29139
2864.00000,50.90753
2866.00000,50.88195
2868.00000,54.71537
2870.00000,54.36262
2872.00000,53.69438
2874.00000,53.47533
2876.00000,52.40759
2878.00000,55.97234
2880.00000,57.26213
2882.00000,60.40070
2884.00000,62.06761
2886.00000,61.16336
2888.00000,64.31142
2890.00000,41.21329
2892.00000,51.50710
2894.00000,43.87272
2896.00000,60.27832
2898.00000,62.82627
2900.00000,64.99361
2902.00000,64.16516
2904.00000,61.40622
2906.00000,57.90452
2908.00000,57.72466
2910.00000,57.81107
2912.00000,58.77309
2914.00000,57.56223
2916.00000,57.74949
2918.00000,56.15426
2920.00000,57.34908
2922.00000,55.58215
2924.00000,53.99964
2926.00000,54.76221
2928.00000,54.42317
2930.00000,54.45670
2932.00000,53.92652
2934.00000,51.04877
2936.00000,51.51500
2938.00000,50.92899
2940.00000,49.65656
2942.00000,49.03408
2944.00000,47.37094
2946.00000,48.83978
2948.00000,48.67145
2950.00000,49.35587
2952.00000,49.70005
2954.00000,50.05715
2956.00000,50.39967
2958.00000,48.11305
2960.00000,47.00658
2962.00000,45.30087
2964.00000,45.35448
2966.00000,46.72168
2968.00000,45.53188
2970.00000,45.12492
2972.00000,43.02101
2974.00000,41.70818
2976.00000,41.49871
2978.00000,41.43774
2980.00000,41.66721
2982.00000,41.73491
2984.00000,41.80966
2986.00000,39.88395
2988.00000,40.18990
2990.00000,38.46019
2992.00000,38.59880
2994.00000,39.16832
2996.00000,38.16771
2998.00000,38.51686
3000.00000,36.87056
3002.00000,35.23590
3004.00000,34.09134
3006.00000,34.25116
3008.00000,34.67704
3010.00000,34.47105
3012.00000,34.45871
3014.00000,32.36971
3016.00000,34.55628
3018.00000,33.71719
3020.00000,34.33660
3022.00000,33.29353
3024.00000,33.17350
3026.00000,34.67368
3028.00000,33.21360
3030.00000,34.38751
3032.00000,31.92662
3034.00000,32.86176
3036.00000,33.28440
3038.00000,36.02973
3040.00000,35.34428
3042.00000,35.36631
3044.00000,31.66594
3046.00000,29.64947
3048.00000,29.21221
3050.00000,31.11309
3052.00000,32.10924
3054.00000,31.77516
3056.00000,29.77328
3058.00000,28.57108
3060.00000,28.55462
3062.00000,28.44331
3064.00000,29.38453
3066.00000,28.42749
3068.00000,30.99036
3070.00000,29.25876
3072.00000,31.20341
3074.00000,30.52479
3076.00000,29.58962
3078.00000,30.58038
3080.00000,30.51489
3082.00000,29.66272
3084.00000,31.04602
3086.00000,31.00373
3088.00000,29.78610
3090.00000,29.61431
3092.00000,27.29153
3094.00000,27.24839
3096.00000,26.38958
3098.00000,25.71052
3100.00000,24.88930
3102.00000,25.67727
3104.00000,27.84381
3106.00000,29.57317
3108.00000,31.17637
3110.00000,29.54896
3112.00000,29.07707
3114.00000,25.86647
3116.00000,26.11653
3118.00000,25.60174
3120.00000,26.12654
3122.00000,26.38694
3124.00000,26.49693
3126.00000,25.68594
3128.00000,27.08057
3130.00000,25.95008
3132.00000,25.87482
3134.00000,24.95375
3136.00000,23.80361
3138.00000,24.86402
3140.00000,24.69131
3142.00000,23.38177
3144.00000,25.47395
3146.00000,25.61884
3148.00000,26.78052
3150.00000,25.78770
3152.00000,23.22468
3154.00000,23.68853
3156.00000,22.07022
3158.00000,23.51116
3160.00000,25.13169
3162.00000,26.39949
3164.00000,27.55160
3166.00000,26.58326
3168.00000,24.43909
3170.00000,25.29778
3172.00000,23.02966
3174.00000,24.72450
3176.00000,25.24943
3178.00000,27.63821
3180.00000,28.35747
3182.00000,26.99218
3184.00000,26.05249
3186.00000,24.47381
3188.00000,24.58348
3190.00000,23.60406
3192.00000,24.06860
3194.00000,24.13354
3196.00000,24.69020
3198.00000,24.77964
3200.00000,24.05701
3202.00000,24.01069
3204.00000,23.81055
3206.00000,23.54838
3208.00000,24.36741
3210.00000,23.98801
3212.00000,24.73119
3214.00000,23.71428
3216.00000,24.79701
3218.00000,25.01301
3220.00000,24.60182
3222.00000,25.61337
3224.00000,24.40840
3226.00000,24.98879
3228.00000,24.26059
3230.00000,23.72907
3232.00000,23.95032
3234.00000,23.47098
3236.00000,24.29622
3238.00000,24.95908
3240.00000,24.69002
3242.00000,24.33174
3244.00000,24.00042
3246.00000,24.87017
3248.00000,24.28033
3250.00000,24.44090
3252.00000,23.78174
3254.00000,23.55458
3256.00000,24.12885
3258.00000,24.52712
3260.00000,24.11447
3262.00000,24.95679
3264.00000,25.18036
3266.00000,25.40745
3268.00000,24.77745
3270.00000,23.92145
3272.00000,21.96770
3274.00000,22.15694
3276.00000,22.48550
3278.00000,23.82482
3280.00000,25.65590
3282.00000,24.88775
3284.00000,23.77706
3286.00000,23.32842
3288.00000,23.55691
3290.00000,25.52171
3292.00000,26.45716
3294.00000,25.80029
3296.00000,24.97315
3298.00000,24.67666
3300.00000,24.90540
3302.00000,23.79058
3304.00000,23.85147
3306.00000,24.63942
3308.00000,27.22829
3310.00000,26.80287
3312.00000,24.76229
3314.00000,23.15985
3316.00000,22.26760
3318.00000,23.11823
3320.00000,25.06791
3322.00000,26.32792
3324.00000,26.27428
3326.00000,24.32314
3328.00000,23.42028
3330.00000,22.35345
3332.00000,24.86409
3334.00000,25.42959
3336.00000,25.62614
3338.00000,23.59193
3340.00000,23.36823
3342.00000,22.96042
3344.00000,24.17743
3346.00000,23.56528
3348.00000,22.14734
3350.00000,22.12570
3352.00000,23.26018
3354.00000,24.43839
3356.00000,25.76587
3358.00000,24.10012
3360.00000,23.02257
3362.00000,22.39318
3364.00000,21.51608
3366.00000,22.43130
3368.00000,23.90624
3370.00000,24.07643
3372.00000,23.60663
3374.00000,24.01692
3376.00000,23.38854
3378.00000,25.43932
3380.00000,25.36557
3382.00000,25.03363
3384.00000,24.44614
3386.00000,23.97846
3388.00000,22.67461
3390.00000,21.71737
3392.00000,21.42830
3394.00000,22.05070
3396.00000,22.01159
3398.00000,22.62314
3400.00000,23.59028
3402.00000,22.85341
3404.00000,22.95391
3406.00000,23.43007
3408.00000,23.52975
3410.00000,24.23788
3412.00000,25.49250
3414.00000,24.63069
3416.00000,25.18120
3418.00000,23.23392
3420.00000,22.27562
3422.00000,21.76080
3424.00000,21.19345
3426.00000,22.77868
3428.00000,23.92040
3430.00000,25.01807
3432.00000,25.23105
3434.00000,24.53457
3436.00000,23.36920
3438.00000,23.81153
3440.00000,23.49118
3442.00000,26.11353
3444.00000,26.73462
3446.00000,24.80533
3448.00000,24.15704
3450.00000,23.01741
3452.00000,23.41199
3454.00000,24.50910
3456.00000,23.33945
3458.00000,22.83693
3460.00000,23.23504
3462.00000,23.61629
3464.00000,22.43419
3466.00000,22.69046
3468.00000,22.76721
3470.00000,23.85759
3472.00000,23.78920
3474.00000,22.62495
3476.00000,21.50799
3478.00000,23.10383
3480.00000,24.57821
3482.00000,25.66562
3484.00000,25.95901
3486.00000,25.41695
3488.00000,25.48238
3490.00000,25.49793
3492.00000,25.49566
3494.00000,25.49638
3496.00000,25.49541
3498.00000,25.49399
3500.00000,25.49187
3502.00000,25.48904
3504.00000,25.48560
3506.00000,25.48146
3508.00000,25.47675
3510.00000,25.47131
3512.00000,25.46532
3514.00000,25.45873
3516.00000,25.45163
3518.00000,25.44398
3520.00000,25.43580
3522.00000,25.42705
3524.00000,25.41780
3526.00000,25.40809
3528.00000,25.39785
3530.00000,25.38721
3532.00000,25.37606
3534.00000,25.36451
3536.00000,25.35254
3538.00000,25.34017
3540.00000,25.32748
3542.00000,25.31439
3544.00000,25.30102
3546.00000,25.28722
3548.00000,25.27310
3550.00000,25.25860
3552.00000,25.24386
3554.00000,25.22883
3556.00000,25.21360
3558.00000,25.19808
3560.00000,25.18237
3562.00000,25.16642
3564.00000,25.15028
3566.00000,25.13390
3568.00000,25.11734
3570.00000,25.10056
3572.00000,25.08368
3574.00000,25.06668
3576.00000,25.04959
3578.00000,25.03237
3580.00000,25.01502
3582.00000,24.99756
3584.00000,24.98002
3586.00000,24.96247
3588.00000,24.94485
3590.00000,24.92716
3592.00000,24.90946
3594.00000,24.89168
3596.00000,24.87399
3598.00000,24.85626
3600.00000,24.83855
3602.00000,24.82087
3604.00000,24.80320
3606.00000,24.78557
3608.00000,24.76798
3610.00000,24.75046
3612.00000,24.73300
3614.00000,24.71565
3616.00000,24.69837
3618.00000,24.68119
3620.00000,24.66409
3622.00000,24.64713
3624.00000,24.63027
3626.00000,24.61352
3628.00000,24.59688
3630.00000,24.58038
3632.00000,24.56408
3634.00000,24.54785
3636.00000,24.53182
3638.00000,24.51590
3640.00000,24.50015
3642.00000,24.48458
3644.00000,24.46925
3646.00000,24.45407
3648.00000,24.43909
3650.00000,24.42420
3652.00000,24.40951
3654.00000,24.39507
3656.00000,24.38081
3658.00000,24.36679
3660.00000,24.35292
3662.00000,24.33925
3664.00000,24.32581
3666.00000,24.31253
3668.00000,24.29951
3670.00000,24.28670
3672.00000,24.27412
3674.00000,24.26178
3676.00000,24.24957
3678.00000,24.23762
3680.00000,24.22581
3682.00000,24.21427
3684.00000,24.20292
3686.00000,24.19181
3688.00000,24.18093
3690.00000,24.17028
3692.00000,24.15988
3694.00000,24.14967
3696.00000,24.13968
3698.00000,24.12989
3700.00000,24.12031
3702.00000,24.11096
3704.00000,24.10178
3706.00000,24.09285
3708.00000,24.08413
3710.00000,24.07562
3712.00000,24.06737
3714.00000,24.05932
3716.00000,24.05148
3718.00000,24.04381
3720.00000,24.03632
3722.00000,24.02902
3724.00000,24.02194
3726.00000,24.01504
3728.00000,24.00836
3730.00000,24.00189
3732.00000,23.99562
3734.00000,23.98957
3736.00000,23.98367
3738.00000,23.97799
3740.00000,23.97241
3742.00000,23.96704
3744.00000,23.96186
3746.00000,23.95687
3748.00000,23.95204
3750.00000,23.94736
3752.00000,23.94282
3754.00000,23.93853
3756.00000,23.93436
3758.00000,23.93045
3760.00000,23.92662
3762.00000,23.92300
3764.00000,23.91942
3766.00000,23.91610
3768.00000,23.91283
3770.00000,23.90974
3772.00000,23.90679
3774.00000,23.90397
3776.00000,23.90135
3778.00000,23.89881
3780.00000,23.89640
3782.00000,23.89411
3784.00000,23.89195
3786.00000,23.88991
3788.00000,23.88801
3790.00000,23.88620
3792.00000,23.88451
3794.00000,23.88290
3796.00000,23.88143
3798.00000,23.88009
3800.00000,23.87885
3802.00000,23.87771
3804.00000,23.87663
3806.00000,23.87566
3808.00000,23.87475
3810.00000,23.87392
3812.00000,23.87321
3814.00000,23.87258
3816.00000,23.87206
3818.00000,23.87159
3820.00000,23.87119
3822.00000,23.87083
3824.00000,23.87053
3826.00000,23.87035
3828.00000,23.87022
3830.00000,23.87017
3832.00000,23.87018
3834.00000,23.87027
3836.00000,23.87040
3838.00000,23.87057
3840.00000,23.87079
3842.00000,23.87109
3844.00000,23.87143
3846.00000,23.87179
3848.00000,23.87219
3850.00000,23.87260
3852.00000,23.87309
3854.00000,23.87359
3856.00000,23.87415
3858.00000,23.87468
3860.00000,23.87529
3862.00000,23.87589
3864.00000,23.87658
3866.00000,23.87726
3868.00000,23.87794
3870.00000,23.87862
3872.00000,23.87929
3874.00000,23.88008
3876.00000,23.88084
3878.00000,23.88161
3880.00000,23.88235
3882.00000,23.88299
3884.00000,23.88368
3886.00000,23.88439
3888.00000,23.88511
3890.00000,23.88587
3892.00000,23.88655
3894.00000,23.88723
3896.00000,23.88788
3898.00000,23.88852
3900.00000,23.88912
3902.00000,23.88974
3904.00000,23.89031
3906.00000,23.89087
3908.00000,23.89135
3910.00000,23.89179
3912.00000,23.89219
3914.00000,23.89257
3916.00000,23.89293
3918.00000,23.89319
3920.00000,23.89342
3922.00000,23.89357
3924.00000,23.89375
3926.00000,23.89382
3928.00000,23.89380
3930.00000,23.89373
3932.00000,23.89354
3934.00000,23.89337
3936.00000,23.89306
3938.00000,23.89268
3940.00000,23.89220
3942.00000,23.89164
3944.00000,23.89101
3946.00000,23.89024
3948.00000,23.88937
3950.00000,23.88839
3952.00000,23.88733
3954.00000,23.88617
3956.00000,23.88490
3958.00000,23.88349
3960.00000,23.88195
3962.00000,23.88026
3964.00000,23.87843
3966.00000,23.87649
3968.00000,23.87441
3970.00000,23.87214
3972.00000,23.86972
3974.00000,23.86715
3976.00000,23.86441
3978.00000,23.86156
3980.00000,23.85849
3982.00000,23.85523
3984.00000,23.85182
3986.00000,23.84813
3988.00000,23.84428
3990.00000,23.84023
3992.00000,23.83600
3994.00000,23.83158
3996.00000,23.82688
3998.00000,23.82194
4000.00000,23.81678
4002.00000,23.81143
4004.00000,23.80578
4006.00000,23.79989
4008.00000,23.79367
4010.00000,23.78722
4012.00000,23.78050
4014.00000,23.77348
4016.00000,23.76616
4018.00000,23.75851
4020.00000,23.75055
4022.00000,23.74223
4024.00000,23.73359
4026.00000,23.72463
4028.00000,23.71538
4030.00000,23.70570
4032.00000,23.69569
4034.00000,23.68525
4036.00000,23.67447
4038.00000,23.66324
4040.00000,23.65162
4042.00000,23.63962
4044.00000,23.62720
4046.00000,23.61433
4048.00000,23.60099
4050.00000,23.58714
4052.00000,23.57286
4054.00000,23.55811
4056.00000,23.54286
4058.00000,23.52706
4060.00000,23.51073
4062.00000,23.49389
4064.00000,23.47651
4066.00000,23.45858
4068.00000,23.44008
4070.00000,23.42096
4072.00000,23.40126
4074.00000,23.38091
4076.00000,23.35995
4078.00000,23.33836
4080.00000,23.31613
4082.00000,23.29322
4084.00000,23.26961
4086.00000,23.24533
4088.00000,23.22032
4090.00000,23.19460
4092.00000,23.16812
4094.00000,23.14085
4096.00000,23.11283
4098.00000,23.08400
4100.00000,23.05434
4102.00000,23.02382
4104.00000,22.99250
4106.00000,22.96035
4108.00000,22.92735
4110.00000,22.89338
4112.00000,22.85849
4114.00000,22.82261
4116.00000,22.78588
4118.00000,22.74814
4120.00000,22.70948
4122.00000,22.66977
4124.00000,22.62906
4126.00000,22.58727
4128.00000,22.54445
4130.00000,22.50048
4132.00000,22.45546
4134.00000,22.40925
4136.00000,22.36193
4138.00000,22.31349
4140.00000,22.26382
4142.00000,22.21298
4144.00000,22.16087
4146.00000,22.10754
4148.00000,22.05292
4150.00000,21.99707
4152.00000,21.93986
4154.00000,21.88130
4156.00000,21.82136
4158.00000,21.76002
4160.00000,21.69734
4162.00000,21.63322
4164.00000,21.56768
4166.00000,21.50064
4168.00000,21.43210
4170.00000,21.36200
4172.00000,21.29039
4174.00000,21.21721
4176.00000,21.14245
4178.00000,21.06608
4180.00000,20.98806
4182.00000,20.90836
4184.00000,20.82697
4186.00000,20.74386
4188.00000,20.65903
4190.00000,20.57242
4192.00000,20.48406
4194.00000,20.39392
4196.00000,20.30199
4198.00000,20.20818
4200.00000,20.11239
4202.00000,20.01453
4204.00000,19.91461
4206.00000,19.81270
4208.00000,19.70890
4210.00000,19.60339
4212.00000,19.49627
4214.00000,19.38787
4216.00000,19.27676
4218.00000,19.16243
4220.00000,19.04427
4222.00000,18.92317
4224.00000,18.80036
4226.00000,18.67702
4228.00000,18.55413
4230.00000,18.43271
4232.00000,18.31363
4234.00000,18.19769
4236.00000,18.08561
4238.00000,17.98117
4240.00000,17.88693
4242.00000,17.80541
4244.00000,17.73658
4246.00000,17.67899
4248.00000,17.63174
4250.00000,17.59385
4252.00000,17.56468
4254.00000,17.54347
4256.00000,17.52311
4258.00000,17.51103
4260.00000,17.50213
4262.00000,17.50000
4264.00000,17.50000
4266.00000,17.50000
4268.00000,17.50000
4270.00000,17.50000
4272.00000,17.50000
4274.00000,17.50000
4276.00000,17.50000
4278.00000,10.00000
