100.00000,10.00000
102.00000,17.50000
104.00000,17.50000
106.00000,17.97829
108.00000,17.45524
110.00000,17.27906
112.00000,17.64842
114.00000,18.67530
116.00000,19.36501
118.00000,19.24900
120.00000,19.17996
122.00000,18.72393
124.00000,19.58471
126.00000,21.96041
128.00000,21.76684
130.00000,20.06158
132.00000,19.17505
134.00000,19.61282
136.00000,21.64151
138.00000,22.16398
140.00000,20.60270
142.00000,18.67752
144.00000,18.09836
146.00000,19.66541
148.00000,21.55358
150.00000,21.78315
152.00000,21.30962
154.00000,21.61919
156.00000,23.93923
158.00000,26.32008
160.00000,26.75302
162.00000,25.48888
164.00000,24.55055
166.00000,22.99141
168.00000,20.89203
170.00000,20.60057
172.00000,22.43115
174.00000,25.36324
176.00000,25.81943
178.00000,24.57598
180.00000,23.67692
182.00000,24.15289
184.00000,25.70165
186.00000,26.90164
188.00000,27.45584
190.00000,26.88650
192.00000,26.16787
194.00000,26.35330
196.00000,25.97561
198.00000,24.92170
200.00000,23.88652
202.00000,25.08975
204.00000,26.92271
206.00000,26.92028
208.00000,25.82263
210.00000,24.00454
212.00000,23.43419
214.00000,24.09984
216.00000,23.82952
218.00000,22.77518
220.00000,21.90836
222.00000,21.86177
224.00000,22.08155
226.00000,21.44450
228.00000,22.75138
230.00000,24.59804
232.00000,25.52274
234.00000,26.88271
236.00000,27.62311
238.00000,28.54299
240.00000,28.50532
242.00000,27.36403
244.00000,26.82998
246.00000,27.14690
248.00000,27.01334
250.00000,25.98949
252.00000,25.00004
254.00000,23.99172
256.00000,23.18602
258.00000,22.36221
260.00000,21.80743
262.00000,22.11750
264.00000,22.47033
266.00000,21.65167
268.00000,21.69393
270.00000,23.01118
272.00000,24.43620
274.00000,25.93994
276.00000,26.52923
278.00000,26.60235
280.00000,25.69223
282.00000,24.40214
284.00000,23.71765
286.00000,23.19299
288.00000,23.21810
290.00000,23.67611
292.00000,24.79073
294.00000,24.67087
296.00000,22.97832
298.00000,21.30363
300.00000,20.82332
302.00000,22.02577
304.00000,23.18265
306.00000,23.38175
308.00000,23.87149
310.00000,24.86628
312.00000,25.57927
314.00000,26.68804
316.00000,26.80518
318.00000,25.50494
320.00000,24.32619
322.00000,24.07330
324.00000,25.39270
326.00000,26.28412
328.00000,25.48667
330.00000,23.95888
332.00000,23.51116
334.00000,23.19392
336.00000,23.43364
338.00000,24.50404
340.00000,25.98811
342.00000,26.87461
344.00000,26.70245
346.00000,26.99013
348.00000,26.45403
350.00000,25.79860
352.00000,25.34096
354.00000,25.43959
356.00000,26.72338
358.00000,27.64659
360.00000,27.55445
362.00000,27.36287
364.00000,26.78306
366.00000,25.85255
368.00000,26.04167
370.00000,27.02906
372.00000,28.80466
374.00000,30.35670
376.00000,30.23078
378.00000,29.43067
380.00000,28.98067
382.00000,28.61622
384.00000,27.73593
386.00000,26.30210
388.00000,25.56332
390.00000,24.24200
392.00000,23.35105
394.00000,23.11888
396.00000,22.42748
398.00000,21.84989
400.00000,21.16339
402.00000,21.56922
404.00000,22.56926
406.00000,22.63833
408.00000,20.96910
410.00000,18.98822
412.00000,18.31093
414.00000,19.29296
416.00000,20.84571
418.00000,21.98362
420.00000,22.76329
422.00000,23.53440
424.00000,23.93297
426.00000,23.00748
428.00000,20.91853
430.00000,19.42067
432.00000,20.34704
434.00000,22.29933
436.00000,23.75548
438.00000,24.07662
440.00000,22.83278
442.00000,21.21083
444.00000,19.97736
446.00000,20.12951
448.00000,20.59416
450.00000,21.30169
452.00000,21.78000
454.00000,21.06092
456.00000,21.88743
458.00000,23.27501
460.00000,23.77750
462.00000,24.16807
464.00000,22.93068
466.00000,22.23957
468.00000,23.64167
470.00000,24.30239
472.00000,24.17611
474.00000,23.11437
476.00000,22.25594
478.00000,22.90409
480.00000,24.68072
482.00000,26.65979
484.00000,27.49222
486.00000,27.60741
488.00000,27.43560
490.00000,27.38175
492.00000,27.03584
494.00000,26.90085
496.00000,27.32258
498.00000,27.87670
500.00000,28.08490
502.00000,28.46496
504.00000,28.97474
506.00000,28.40084
508.00000,29.20858
510.00000,30.45924
512.00000,31.60793
514.00000,31.75728
516.00000,31.95878
518.00000,33.02099
520.00000,34.51600
522.00000,35.86259
524.00000,35.78928
526.00000,35.15922
528.00000,34.88264
530.00000,36.12363
532.00000,37.37786
534.00000,37.43545
536.00000,36.35445
538.00000,36.22694
540.00000,36.68759
542.00000,36.06178
544.00000,34.10028
546.00000,34.11802
548.00000,34.53951
550.00000,34.91795
552.00000,34.95205
554.00000,34.71025
556.00000,35.08931
558.00000,34.23355
560.00000,31.80847
562.00000,29.93310
564.00000,29.36497
566.00000,29.78116
568.00000,30.51672
570.00000,32.10334
572.00000,32.02209
574.00000,30.68126
576.00000,29.38640
578.00000,28.36543
580.00000,28.12727
582.00000,28.03627
584.00000,28.50938
586.00000,28.69114
588.00000,27.53953
590.00000,25.32486
592.00000,23.81359
594.00000,23.30683
596.00000,24.52071
598.00000,25.08645
600.00000,24.11779
602.00000,22.83056
604.00000,23.07786
606.00000,24.26018
608.00000,24.65740
610.00000,23.95424
612.00000,21.96994
614.00000,19.91727
616.00000,18.55617
618.00000,19.33652
620.00000,21.75130
622.00000,22.83802
624.00000,22.14007
626.00000,21.80419
628.00000,20.95349
630.00000,21.75671
632.00000,22.18520
634.00000,22.40556
636.00000,23.46869
638.00000,23.37771
640.00000,23.65962
642.00000,24.20186
644.00000,23.15712
646.00000,22.12642
648.00000,21.71046
650.00000,22.20593
652.00000,21.87153
654.00000,21.54446
656.00000,20.54107
658.00000,20.58644
660.00000,22.04182
662.00000,23.80115
664.00000,22.86359
666.00000,21.05040
668.00000,20.93972
670.00000,22.43143
672.00000,23.36159
674.00000,23.40290
676.00000,22.63931
678.00000,21.85386
680.00000,24.41639
682.00000,27.15224
684.00000,38.55293
686.00000,57.28474
688.00000,67.70882
690.00000,68.46316
692.00000,54.84863
694.00000,38.14387
696.00000,27.49359
698.00000,22.70179
700.00000,22.16100
702.00000,23.07454
704.00000,23.24948
706.00000,21.22482
708.00000,19.89512
710.00000,18.69015
712.00000,18.32082
714.00000,18.86627
716.00000,20.24252
718.00000,20.27303
720.00000,20.54399
722.00000,20.78402
724.00000,19.42186
726.00000,19.34307
728.00000,19.29349
730.00000,20.53199
732.00000,21.76013
734.00000,20.74694
736.00000,19.05639
738.00000,18.68433
740.00000,20.30045
742.00000,22.43694
744.00000,24.26159
746.00000,24.04225
748.00000,23.86107
750.00000,24.43397
752.00000,24.87986
754.00000,25.35413
756.00000,24.04890
758.00000,22.68974
760.00000,22.45066
762.00000,22.52038
764.00000,23.19440
766.00000,22.80116
768.00000,21.53400
770.00000,20.33817
772.00000,20.46629
774.00000,21.76060
776.00000,22.41970
778.00000,22.04594
780.00000,21.65621
782.00000,20.88173
784.00000,19.92937
786.00000,18.92217
788.00000,18.64321
790.00000,19.19154
792.00000,20.00098
794.00000,19.87479
796.00000,19.83331
798.00000,20.02776
800.00000,19.94943
802.00000,19.67411
804.00000,18.85811
806.00000,19.39968
808.00000,20.18039
810.00000,19.95331
812.00000,20.81051
814.00000,20.90020
816.00000,21.71719
818.00000,22.17740
820.00000,21.88545
822.00000,21.50302
824.00000,21.87757
826.00000,21.81540
828.00000,21.75372
830.00000,21.96881
832.00000,22.01995
834.00000,22.45357
836.00000,21.95783
838.00000,20.99705
840.00000,20.39880
842.00000,20.59712
844.00000,21.86309
846.00000,21.96828
848.00000,21.39166
850.00000,20.94031
852.00000,20.78106
854.00000,20.64424
856.00000,20.68642
858.00000,20.60352
860.00000,21.33904
862.00000,22.51946
864.00000,22.30172
866.00000,21.58244
868.00000,20.44943
870.00000,20.33680
872.00000,21.68877
874.00000,23.26885
876.00000,23.42787
878.00000,24.39863
880.00000,23.72680
882.00000,22.50916
884.00000,22.37728
886.00000,21.88093
888.00000,23.02516
890.00000,23.15942
892.00000,21.33570
894.00000,19.31989
896.00000,19.29748
898.00000,19.30545
900.00000,20.70633
902.00000,21.82237
904.00000,22.51884
906.00000,22.93446
908.00000,24.09919
910.00000,25.24817
912.00000,24.90425
914.00000,24.44570
916.00000,23.96561
918.00000,23.27966
920.00000,24.80258
922.00000,25.27100
924.00000,24.78640
926.00000,23.61193
928.00000,22.08888
930.00000,21.53436
932.00000,24.14071
934.00000,23.17379
936.00000,23.44702
938.00000,22.37765
940.00000,20.85908
942.00000,21.47791
944.00000,20.86545
946.00000,21.20468
948.00000,22.69792
950.00000,22.88198
952.00000,22.71068
954.00000,24.56268
956.00000,23.93806
958.00000,23.16002
960.00000,21.85312
962.00000,21.74534
964.00000,22.76733
966.00000,23.43072
968.00000,23.42375
970.00000,22.73404
972.00000,22.79254
974.00000,21.80186
976.00000,19.81437
978.00000,18.57270
980.00000,18.28770
982.00000,18.60530
984.00000,21.13839
986.00000,23.20280
988.00000,24.95579
990.00000,25.56431
992.00000,23.45735
994.00000,23.79830
996.00000,23.03956
998.00000,22.12905
1000.00000,21.20040
1002.00000,20.42006
1004.00000,20.27644
1006.00000,22.41424
1008.00000,22.41737
1010.00000,22.33037
1012.00000,21.84458
1014.00000,20.90868
1016.00000,20.00499
1018.00000,20.08627
1020.00000,20.07348
1022.00000,21.70408
1024.00000,22.44925
1026.00000,21.35410
1028.00000,19.55122
1030.00000,18.88053
1032.00000,19.54945
1034.00000,21.12324
1036.00000,22.96139
1038.00000,23.06332
1040.00000,22.97552
1042.00000,22.44580
1044.00000,20.96146
1046.00000,21.79017
1048.00000,21.93703
1050.00000,22.22277
1052.00000,23.22086
1054.00000,23.27043
1056.00000,22.01911
1058.00000,21.15975
1060.00000,20.82860
1062.00000,20.42196
1064.00000,19.98030
1066.00000,18.97815
1068.00000,18.77298
1070.00000,19.93530
1072.00000,21.50142
1074.00000,22.32159
1076.00000,23.49857
1078.00000,25.26506
1080.00000,26.18605
1082.00000,25.91737
1084.00000,23.73382
1086.00000,21.40625
1088.00000,21.21599
1090.00000,20.30403
1092.00000,21.47048
1094.00000,21.28781
1096.00000,22.65553
1098.00000,23.64711
1100.00000,23.61544
1102.00000,23.54224
1104.00000,21.57907
1106.00000,21.49900
1108.00000,22.72668
1110.00000,23.77842
1112.00000,23.16786
1114.00000,22.54288
1116.00000,22.95468
1118.00000,22.76584
1120.00000,22.67878
1122.00000,21.28947
1124.00000,20.12905
1126.00000,19.92740
1128.00000,20.66010
1130.00000,20.88980
1132.00000,20.38438
1134.00000,20.85383
1136.00000,21.66516
1138.00000,22.74599
1140.00000,22.83470
1142.00000,22.16687
1144.00000,22.35797
1146.00000,22.44378
1148.00000,22.39194
1150.00000,23.19201
1152.00000,23.13400
1154.00000,22.25227
1156.00000,20.59759
1158.00000,20.33319
1160.00000,22.04235
1162.00000,23.37627
1164.00000,22.63960
1166.00000,21.93917
1168.00000,23.24613
1170.00000,24.49065
1172.00000,26.18519
1174.00000,25.61613
1176.00000,25.31596
1178.00000,24.91952
1180.00000,23.96475
1182.00000,23.79684
1184.00000,24.20562
1186.00000,24.13745
1188.00000,25.56823
1190.00000,24.97098
1192.00000,24.51944
1194.00000,23.78023
1196.00000,22.12117
1198.00000,22.27190
1200.00000,23.49102
1202.00000,23.95155
1204.00000,24.98389
1206.00000,25.80909
1208.00000,25.70626
1210.00000,27.91359
1212.00000,28.38563
1214.00000,28.54928
1216.00000,27.84978
1218.00000,27.17522
1220.00000,27.29301
1222.00000,27.45066
1224.00000,28.31140
1226.00000,29.83684
1228.00000,30.27446
1230.00000,30.09327
1232.00000,26.47282
1234.00000,24.30352
1236.00000,24.10009
1238.00000,25.75304
1240.00000,26.97370
1242.00000,26.98498
1244.00000,28.15644
1246.00000,27.72150
1248.00000,29.39138
1250.00000,28.99961
1252.00000,28.98673
1254.00000,28.36061
1256.00000,27.49781
1258.00000,26.60215
1260.00000,26.09023
1262.00000,26.23488
1264.00000,26.52220
1266.00000,27.45379
1268.00000,29.24340
1270.00000,31.24010
1272.00000,30.45034
1274.00000,32.03022
1276.00000,30.42577
1278.00000,32.55993
1280.00000,33.19211
1282.00000,33.07810
1284.00000,33.97424
1286.00000,32.97659
1288.00000,34.14122
1290.00000,33.59290
1292.00000,34.56541
1294.00000,33.37094
1296.00000,33.42603
1298.00000,34.54386
1300.00000,34.97699
1302.00000,35.88938
1304.00000,35.72622
1306.00000,34.93702
1308.00000,34.74575
1310.00000,34.27296
1312.00000,34.21334
1314.00000,34.95327
1316.00000,35.48039
1318.00000,37.38916
1320.00000,38.71598
1322.00000,39.56779
1324.00000,40.11810
1326.00000,38.81974
1328.00000,38.17640
1330.00000,37.59577
1332.00000,36.50383
1334.00000,36.48305
1336.00000,36.46576
1338.00000,36.22427
1340.00000,37.25829
1342.00000,36.27632
1344.00000,36.85608
1346.00000,35.32128
1348.00000,33.64430
1350.00000,31.84698
1352.00000,30.53774
1354.00000,29.92040
1356.00000,31.13317
1358.00000,32.29907
1360.00000,32.51513
1362.00000,33.34257
1364.00000,33.49864
1366.00000,32.70748
1368.00000,32.32166
1370.00000,29.57075
1372.00000,29.79287
1374.00000,30.27722
1376.00000,32.08582
1378.00000,33.28862
1380.00000,35.07500
1382.00000,35.05333
1384.00000,34.00998
1386.00000,32.29358
1388.00000,31.05583
1390.00000,32.32830
1392.00000,32.86166
1394.00000,32.22874
1396.00000,32.34318
1398.00000,31.18625
1400.00000,31.36934
1402.00000,31.87530
1404.00000,32.41339
1406.00000,31.36024
1408.00000,33.90908
1410.00000,34.30060
1412.00000,33.70270
1414.00000,33.84673
1416.00000,34.52087
1418.00000,36.28692
1420.00000,36.56345
1422.00000,36.34908
1424.00000,36.23093
1426.00000,36.83251
1428.00000,36.32870
1430.00000,35.11663
1432.00000,35.82093
1434.00000,36.20150
1436.00000,35.51951
1438.00000,33.46021
1440.00000,32.93925
1442.00000,34.36167
1444.00000,35.72866
1446.00000,36.59614
1448.00000,36.44210
1450.00000,37.99491
1452.00000,38.48697
1454.00000,39.98769
1456.00000,39.89958
1458.00000,41.48418
1460.00000,42.21040
1462.00000,43.61665
1464.00000,44.14684
1466.00000,45.86749
1468.00000,46.27824
1470.00000,46.21786
1472.00000,48.33590
1474.00000,51.94685
1476.00000,54.59368
1478.00000,53.96001
1480.00000,53.82753
1482.00000,53.36335
1484.00000,53.15551
1486.00000,51.26206
1488.00000,47.72326
1490.00000,44.53721
1492.00000,43.00673
1494.00000,42.04311
1496.00000,39.88149
1498.00000,37.51055
1500.00000,34.59420
1502.00000,32.89719
1504.00000,33.00688
1506.00000,30.38651
1508.00000,30.01376
1510.00000,26.68357
1512.00000,26.57044
1514.00000,25.49541
1516.00000,25.03217
1518.00000,23.41326
1520.00000,22.43429
1522.00000,22.40171
1524.00000,21.64311
1526.00000,23.59410
1528.00000,22.72280
1530.00000,22.68624
1532.00000,23.72065
1534.00000,23.27310
1536.00000,23.05384
1538.00000,21.70524
1540.00000,21.23275
1542.00000,21.41199
1544.00000,22.87889
1546.00000,22.74920
1548.00000,22.21864
1550.00000,21.98067
1552.00000,22.02672
1554.00000,22.04010
1556.00000,23.27055
1558.00000,23.73174
1560.00000,24.04349
1562.00000,24.65420
1564.00000,23.05101
1566.00000,24.57142
1568.00000,24.92622
1570.00000,25.28454
1572.00000,24.98477
1574.00000,24.07586
1576.00000,25.15082
1578.00000,25.29720
1580.00000,24.50678
1582.00000,24.29967
1584.00000,23.38056
1586.00000,24.29447
1588.00000,25.05333
1590.00000,24.11326
1592.00000,23.59897
1594.00000,22.47434
1596.00000,22.19310
1598.00000,23.22728
1600.00000,23.91689
1602.00000,23.65891
1604.00000,22.62526
1606.00000,23.60880
1608.00000,23.68777
1610.00000,22.97408
1612.00000,23.87646
1614.00000,22.17357
1616.00000,23.08438
1618.00000,21.25041
1620.00000,21.48007
1622.00000,21.54165
1624.00000,21.60530
1626.00000,21.30449
1628.00000,21.01334
1630.00000,20.77944
1632.00000,22.07997
1634.00000,22.01017
1636.00000,22.46075
1638.00000,22.80598
1640.00000,22.42509
1642.00000,22.03267
1644.00000,22.28581
1646.00000,22.45504
1648.00000,21.41081
1650.00000,20.60764
1652.00000,21.11018
1654.00000,21.84666
1656.00000,21.45569
1658.00000,22.10790
1660.00000,20.93984
1662.00000,23.08799
1664.00000,23.74529
1666.00000,22.06469
1668.00000,21.82823
1670.00000,21.33712
1672.00000,22.05350
1674.00000,21.92091
1676.00000,22.61106
1678.00000,21.59087
1680.00000,22.12393
1682.00000,22.00985
1684.00000,21.53116
1686.00000,21.94093
1688.00000,20.57098
1690.00000,21.45104
1692.00000,21.84578
1694.00000,21.53512
1696.00000,20.23158
1698.00000,20.02339
1700.00000,19.40452
1702.00000,20.59167
1704.00000,21.88459
1706.00000,21.47790
1708.00000,22.33027
1710.00000,21.26607
1712.00000,20.92350
1714.00000,19.55515
1716.00000,19.15659
1718.00000,20.43844
1720.00000,21.55149
1722.00000,22.89432
1724.00000,22.34926
1726.00000,20.16474
1728.00000,19.77781
1730.00000,19.63301
1732.00000,20.31113
1734.00000,21.52680
1736.00000,22.39483
1738.00000,23.09116
1740.00000,22.14248
1742.00000,20.93554
1744.00000,20.23382
1746.00000,19.86111
1748.00000,21.05352
1750.00000,21.85247
1752.00000,22.47145
1754.00000,21.47471
1756.00000,21.15048
1758.00000,21.12387
1760.00000,20.82473
1762.00000,20.81227
1764.00000,20.34970
1766.00000,21.23439
1768.00000,21.14830
1770.00000,22.81680
1772.00000,22.51474
1774.00000,21.99911
1776.00000,21.02727
1778.00000,21.31167
1780.00000,21.37044
1782.00000,21.93924
1784.00000,21.43355
1786.00000,20.85026
1788.00000,20.21337
1790.00000,20.78710
1792.00000,21.13540
1794.00000,22.33321
1796.00000,22.09439
1798.00000,21.80270
1800.00000,20.86760
1802.00000,19.83321
1804.00000,19.91475
1806.00000,21.31815
1808.00000,21.37688
1810.00000,22.06071
1812.00000,21.07118
1814.00000,20.12708
1816.00000,20.65799
1818.00000,21.83955
1820.00000,23.14606
1822.00000,21.68279
1824.00000,21.44910
1826.00000,19.90526
1828.00000,20.37734
1830.00000,20.65556
1832.00000,20.79355
1834.00000,22.31643
1836.00000,21.06846
1838.00000,21.03878
1840.00000,20.19527
1842.00000,21.94905
1844.00000,21.82118
1846.00000,22.22769
1848.00000,22.33667
1850.00000,21.91969
1852.00000,22.84431
1854.00000,22.95219
1856.00000,24.57728
1858.00000,25.26071
1860.00000,25.77542
1862.00000,24.85833
1864.00000,23.03981
1866.00000,24.03848
1868.00000,22.08991
1870.00000,23.09987
1872.00000,23.39109
1874.00000,24.15057
1876.00000,25.78954
1878.00000,25.45640
1880.00000,25.06892
1882.00000,24.31780
1884.00000,23.83761
1886.00000,23.65275
1888.00000,23.52437
1890.00000,22.88932
1892.00000,23.55888
1894.00000,22.88254
1896.00000,20.93743
1898.00000,20.26912
1900.00000,19.81018
1902.00000,22.80147
1904.00000,23.28374
1906.00000,24.50492
1908.00000,24.74802
1910.00000,23.70736
1912.00000,23.89977
1914.00000,23.49213
1916.00000,23.95432
1918.00000,23.12913
1920.00000,21.39039
1922.00000,20.73399
1924.00000,20.19731
1926.00000,21.35801
1928.00000,21.18195
1930.00000,20.50451
1932.00000,21.04652
1934.00000,20.77242
1936.00000,21.49606
1938.00000,23.01212
1940.00000,23.95006
1942.00000,24.64095
1944.00000,22.78545
1946.00000,21.89813
1948.00000,21.90060
1950.00000,22.52077
1952.00000,22.32321
1954.00000,22.92714
1956.00000,22.55044
1958.00000,23.07308
1960.00000,23.58420
1962.00000,23.00253
1964.00000,23.45644
1966.00000,23.00890
1968.00000,23.51707
1970.00000,23.50577
1972.00000,22.94609
1974.00000,22.56954
1976.00000,22.45648
1978.00000,22.88171
1980.00000,23.43518
1982.00000,24.48219
1984.00000,24.05921
1986.00000,25.08096
1988.00000,24.31201
1990.00000,25.38653
1992.00000,25.42876
1994.00000,25.01712
1996.00000,24.22945
1998.00000,23.91302
2000.00000,23.53064
2002.00000,24.73284
2004.00000,23.73984
2006.00000,24.54628
2008.00000,24.25602
2010.00000,21.76379
2012.00000,22.00131
2014.00000,22.03101
2016.00000,24.62561
2018.00000,25.18568
2020.00000,25.18756
2022.00000,24.62813
2024.00000,24.15937
2026.00000,24.20382
2028.00000,24.89824
2030.00000,25.36771
2032.00000,24.24677
2034.00000,24.82282
2036.00000,24.35981
2038.00000,24.95070
2040.00000,24.29147
2042.00000,22.81256
2044.00000,23.30721
2046.00000,22.24854
2048.00000,22.69375
2050.00000,21.58243
2052.00000,21.10692
2054.00000,21.61867
2056.00000,22.73449
2058.00000,22.91166
2060.00000,23.58480
2062.00000,22.44406
2064.00000,23.17212
2066.00000,23.69356
2068.00000,23.74236
2070.00000,23.23695
2072.00000,23.67772
2074.00000,23.31315
2076.00000,24.02791
2078.00000,23.92968
2080.00000,23.41429
2082.00000,21.46877
2084.00000,21.33200
2086.00000,21.34407
2088.00000,21.43607
2090.00000,21.84326
2092.00000,20.21309
2094.00000,21.51969
2096.00000,21.50224
2098.00000,22.81531
2100.00000,21.80884
2102.00000,20.86663
2104.00000,20.03543
2106.00000,19.41540
2108.00000,19.75055
2110.00000,19.75446
2112.00000,19.27365
2114.00000,19.44501
2116.00000,20.34759
2118.00000,20.86226
2120.00000,20.97757
2122.00000,20.15121
2124.00000,20.25571
2126.00000,21.95049
2128.00000,22.02812
2130.00000,23.22543
2132.00000,23.16455
2134.00000,23.75422
2136.00000,23.36804
2138.00000,23.77462
2140.00000,23.42423
2142.00000,22.94031
2144.00000,21.79511
2146.00000,21.19739
2148.00000,20.43878
2150.00000,20.75336
2152.00000,20.33597
2154.00000,21.04355
2156.00000,22.79941
2158.00000,23.35148
2160.00000,24.97228
2162.00000,24.38863
2164.00000,22.56851
2166.00000,21.88739
2168.00000,20.67562
2170.00000,21.84244
2172.00000,21.56286
2174.00000,21.67135
2176.00000,20.44509
2178.00000,20.99375
2180.00000,21.02605
2182.00000,22.48142
2184.00000,21.30913
2186.00000,21.98963
2188.00000,20.80485
2190.00000,20.64511
2192.00000,20.69915
2194.00000,21.70245
2196.00000,22.19410
2198.00000,21.75030
2200.00000,21.96229
2202.00000,21.04233
2204.00000,22.09276
2206.00000,22.00464
2208.00000,22.80954
2210.00000,23.16128
2212.00000,23.37645
2214.00000,21.32241
2216.00000,21.35697
2218.00000,20.24374
2220.00000,20.51411
2222.00000,20.05478
2224.00000,21.07817
2226.00000,22.40590
2228.00000,22.09949
2230.00000,23.50744
2232.00000,22.37899
2234.00000,22.66013
2236.00000,22.17688
2238.00000,21.46346
2240.00000,21.72177
2242.00000,21.74549
2244.00000,21.48879
2246.00000,22.05078
2248.00000,21.56861
2250.00000,22.17602
2252.00000,22.30371
2254.00000,23.97956
2256.00000,23.91512
2258.00000,24.11008
2260.00000,22.72235
2262.00000,23.37425
2264.00000,22.45929
2266.00000,23.47379
2268.00000,22.29689
2270.00000,23.09445
2272.00000,21.85631
2274.00000,21.51868
2276.00000,21.84574
2278.00000,21.16562
2280.00000,22.18211
2282.00000,20.61917
2284.00000,21.24161
2286.00000,20.49433
2288.00000,21.99068
2290.00000,22.29305
2292.00000,21.71786
2294.00000,22.77939
2296.00000,21.80403
2298.00000,22.37203
2300.00000,22.25489
2302.00000,22.34332
2304.00000,23.74500
2306.00000,23.07360
2308.00000,23.07868
2310.00000,22.51440
2312.00000,23.27761
2314.00000,22.45471
2316.00000,22.59503
2318.00000,21.58817
2320.00000,21.19829
2322.00000,21.22166
2324.00000,23.28274
2326.00000,23.89932
2328.00000,25.61536
2330.00000,25.82859
2332.00000,25.22117
2334.00000,25.98826
2336.00000,25.48369
2338.00000,25.22110
2340.00000,25.17490
2342.00000,23.96845
2344.00000,24.60056
2346.00000,23.31994
2348.00000,24.53591
2350.00000,23.29064
2352.00000,23.79559
2354.00000,23.39718
2356.00000,22.84621
2358.00000,23.39792
2360.00000,22.59666
2362.00000,23.26639
2364.00000,22.88780
2366.00000,23.74380
2368.00000,24.13047
2370.00000,23.59096
2372.00000,23.20930
2374.00000,21.98035
2376.00000,22.89366
2378.00000,21.00014
2380.00000,22.87876
2382.00000,22.54192
2384.00000,22.86803
2386.00000,20.85656
2388.00000,20.67313
2390.00000,20.51628
2392.00000,21.68360
2394.00000,22.14995
2396.00000,22.68586
2398.00000,22.78561
2400.00000,23.13866
2402.00000,24.02150
2404.00000,24.15622
2406.00000,24.45484
2408.00000,24.03340
2410.00000,22.96669
2412.00000,23.44841
2414.00000,23.19899
2416.00000,23.50187
2418.00000,23.19931
2420.00000,22.81561
2422.00000,22.64815
2424.00000,22.44927
2426.00000,22.21478
2428.00000,23.07026
2430.00000,22.96380
2432.00000,23.82471
2434.00000,22.07253
2436.00000,22.72392
2438.00000,22.19888
2440.00000,23.72919
2442.00000,23.35633
2444.00000,22.48348
2446.00000,21.92919
2448.00000,21.08162
2450.00000,22.62699
2452.00000,22.76239
2454.00000,23.91010
2456.00000,23.46010
2458.00000,23.32241
2460.00000,23.52241
2462.00000,24.58171
2464.00000,23.93911
2466.00000,24.42532
2468.00000,24.38458
2470.00000,23.87411
2472.00000,23.06217
2474.00000,22.56918
2476.00000,21.50634
2478.00000,22.49461
2480.00000,22.21182
2482.00000,22.02999
2484.00000,22.06991
2486.00000,21.77421
2488.00000,22.70723
2490.00000,23.29136
2492.00000,23.22182
2494.00000,22.23447
2496.00000,23.26142
2498.00000,22.67505
2500.00000,22.85219
2502.00000,22.27592
2504.00000,21.79899
2506.00000,21.84727
2508.00000,22.04371
2510.00000,20.82517
2512.00000,21.17741
2514.00000,20.79098
2516.00000,22.05229
2518.00000,22.44302
2520.00000,21.92962
2522.00000,21.82731
2524.00000,21.50834
2526.00000,22.00786
2528.00000,22.10392
2530.00000,22.37597
2532.00000,22.70020
2534.00000,23.00360
2536.00000,22.85128
2538.00000,21.86841
2540.00000,21.28378
2542.00000,21.25381
2544.00000,20.61626
2546.00000,22.41260
2548.00000,21.78110
2550.00000,22.22133
2552.00000,21.30960
2554.00000,20.56983
2556.00000,21.65209
2558.00000,21.87581
2560.00000,21.57006
2562.00000,22.00727
2564.00000,20.39754
2566.00000,20.58732
2568.00000,20.56054
2570.00000,20.28056
2572.00000,20.84440
2574.00000,21.27978
2576.00000,21.10360
2578.00000,21.40100
2580.00000,20.60058
2582.00000,20.78941
2584.00000,20.10877
2586.00000,20.35247
2588.00000,20.08460
2590.00000,20.84810
2592.00000,20.74476
2594.00000,22.44128
2596.00000,22.43195
2598.00000,22.00448
2600.00000,21.55646
2602.00000,19.71673
2604.00000,20.29253
2606.00000,20.03762
2608.00000,20.79009
2610.00000,22.32239
2612.00000,21.54216
2614.00000,22.08612
2616.00000,20.69938
2618.00000,20.45904
2620.00000,20.43581
2622.00000,21.97597
2624.00000,21.44863
2626.00000,23.46451
2628.00000,22.34939
2630.00000,23.01365
2632.00000,21.20806
2634.00000,20.70222
2636.00000,20.49351
2638.00000,21.14726
2640.00000,20.42701
2642.00000,19.74793
2644.00000,19.89325
2646.00000,20.46974
2648.00000,21.96429
2650.00000,21.56307
2652.00000,21.18588
2654.00000,20.80331
2656.00000,22.19648
2658.00000,22.35412
2660.00000,22.56753
2662.00000,21.45810
2664.00000,21.05572
2666.00000,21.68928
2668.00000,20.93340
2670.00000,20.28743
2672.00000,20.51998
2674.00000,20.31130
2676.00000,20.39374
2678.00000,20.09304
2680.00000,19.67414
2682.00000,20.53481
2684.00000,21.10773
2686.00000,20.72494
2688.00000,20.73872
2690.00000,19.78936
2692.00000,20.24652
2694.00000,20.84830
2696.00000,20.82478
2698.00000,22.02076
2700.00000,21.82680
2702.00000,22.50718
2704.00000,21.74785
2706.00000,21.49287
2708.00000,22.24722
2710.00000,22.28470
2712.00000,22.12170
2714.00000,21.18906
2716.00000,21.35470
2718.00000,21.37430
2720.00000,21.76996
2722.00000,20.92672
2724.00000,20.81216
2726.00000,21.04647
2728.00000,21.43029
2730.00000,21.81574
2732.00000,21.54517
2734.00000,20.79343
2736.00000,20.92567
2738.00000,20.68169
2740.00000,20.22583
2742.00000,20.24563
2744.00000,21.66245
2746.00000,22.21493
2748.00000,21.51867
2750.00000,21.55704
2752.00000,20.64944
2754.00000,21.93145
2756.00000,22.40583
2758.00000,22.24881
2760.00000,22.19097
2762.00000,21.47535
2764.00000,22.48636
2766.00000,21.72746
2768.00000,22.72618
2770.00000,21.80720
2772.00000,21.61684
2774.00000,20.66970
2776.00000,19.73422
2778.00000,19.86260
2780.00000,21.45246
2782.00000,20.70378
2784.00000,23.18766
2786.00000,22.59277
2788.00000,23.39750
2790.00000,22.28646
2792.00000,22.44187
2794.00000,21.89104
2796.00000,21.26264
2798.00000,22.14868
2800.00000,21.88058
2802.00000,23.43009
2804.00000,22.64325
2806.00000,22.40964
2808.00000,21.74375
2810.00000,22.34214
2812.00000,22.96410
2814.00000,23.54915
2816.00000,23.61638
2818.00000,23.77074
2820.00000,23.96591
2822.00000,23.45965
2824.00000,23.00597
2826.00000,21.84048
2828.00000,22.96281
2830.00000,23.98704
2832.00000,24.06294
2834.00000,23.11481
2836.00000,22.70008
2838.00000,21.59770
2840.00000,23.55819
2842.00000,23.31465
2844.00000,25.65265
2846.00000,25.06881
2848.00000,25.41729
2850.00000,23.43454
2852.00000,22.92290
2854.00000,22.45794
2856.00000,23.50254
2858.00000,23.89293
2860.00000,24.39871
2862.00000,23.44725
2864.00000,24.11626
2866.00000,24.95875
2868.00000,24.48703
2870.00000,25.12429
2872.00000,23.45963
2874.00000,23.83506
2876.00000,23.23183
2878.00000,23.79902
2880.00000,24.39042
2882.00000,24.88062
2884.00000,25.66275
2886.00000,25.64584
2888.00000,26.30215
2890.00000,22.84546
2892.00000,24.24156
2894.00000,24.11523
2896.00000,25.13094
2898.00000,25.78731
2900.00000,24.30855
2902.00000,24.96807
2904.00000,24.57457
2906.00000,24.76383
2908.00000,25.09042
2910.00000,24.40968
2912.00000,23.85143
2914.00000,24.34422
2916.00000,23.07167
2918.00000,23.69700
2920.00000,23.84835
2922.00000,23.69923
2924.00000,23.88069
2926.00000,23.31394
2928.00000,22.21404
2930.00000,23.43173
2932.00000,22.62923
2934.00000,23.43969
2936.00000,23.52709
2938.00000,23.55052
2940.00000,23.12999
2942.00000,23.39012
2944.00000,23.51091
2946.00000,23.77945
2948.00000,23.86563
2950.00000,23.65586
2952.00000,24.29773
2954.00000,24.22646
2956.00000,24.10713
2958.00000,24.65775
2960.00000,25.39915
2962.00000,24.66650
2964.00000,24.20855
2966.00000,23.06287
2968.00000,22.48648
2970.00000,22.84155
2972.00000,23.46164
2974.00000,23.52263
2976.00000,24.69641
2978.00000,24.08146
2980.00000,24.05943
2982.00000,24.01404
2984.00000,24.04155
2986.00000,23.38840
2988.00000,23.80344
2990.00000,23.51210
2992.00000,21.83145
2994.00000,21.52723
2996.00000,21.52771
2998.00000,22.50846
3000.00000,22.56743
3002.00000,23.64513
3004.00000,23.72845
3006.00000,23.71334
3008.00000,24.91662
3010.00000,23.69284
3012.00000,25.60533
3014.00000,23.50415
3016.00000,24.07058
3018.00000,23.41696
3020.00000,23.42507
3022.00000,23.11724
3024.00000,23.85795
3026.00000,24.15828
3028.00000,25.00116
3030.00000,25.14514
3032.00000,24.73387
3034.00000,23.41541
3036.00000,22.07466
3038.00000,21.85013
3040.00000,22.14902
3042.00000,22.19930
3044.00000,22.05267
3046.00000,21.18235
3048.00000,23.19804
3050.00000,23.58113
3052.00000,24.17008
3054.00000,24.07949
3056.00000,23.69579
3058.00000,23.89088
3060.00000,22.72846
3062.00000,23.09268
3064.00000,22.63121
3066.00000,22.89562
3068.00000,22.17513
3070.00000,22.05658
3072.00000,21.77935
3074.00000,22.00314
3076.00000,23.05230
3078.00000,21.19308
3080.00000,21.35613
3082.00000,20.18805
3084.00000,21.26423
3086.00000,22.67499
3088.00000,22.76622
3090.00000,22.71991
3092.00000,21.95108
3094.00000,21.96308
3096.00000,21.22840
3098.00000,21.91365
3100.00000,22.85683
3102.00000,23.20433
3104.00000,23.60841
3106.00000,22.87327
3108.00000,23.96330
3110.00000,23.23014
3112.00000,23.42566
3114.00000,21.84757
3116.00000,21.53317
3118.00000,19.98008
3120.00000,20.42872
3122.00000,20.47990
3124.00000,22.02073
3126.00000,23.63371
3128.00000,24.27546
3130.00000,23.64894
3132.00000,22.49311
3134.00000,21.34146
3136.00000,21.91694
3138.00000,22.23571
3140.00000,22.62374
3142.00000,22.14831
3144.00000,22.49687
3146.00000,21.09761
3148.00000,20.79354
3150.00000,21.28382
3152.00000,22.50034
3154.00000,23.67987
3156.00000,22.79583
3158.00000,22.15422
3160.00000,21.24239
3162.00000,21.07407
3164.00000,21.01139
3166.00000,21.28033
3168.00000,21.10335
3170.00000,20.72218
3172.00000,20.65471
3174.00000,20.78114
3176.00000,21.84361
3178.00000,21.05954
3180.00000,22.49662
3182.00000,21.99668
3184.00000,23.08064
3186.00000,22.62020
3188.00000,22.29890
3190.00000,21.01229
3192.00000,20.16875
3194.00000,20.38629
3196.00000,21.05488
3198.00000,22.28186
3200.00000,21.97963
3202.00000,21.43324
3204.00000,20.60598
3206.00000,20.88682
3208.00000,20.38676
3210.00000,21.42143
3212.00000,21.57657
3214.00000,21.52328
3216.00000,21.29170
3218.00000,22.38626
3220.00000,23.27903
3222.00000,23.59514
3224.00000,23.50540
3226.00000,21.83652
3228.00000,20.52764
3230.00000,19.28983
3232.00000,20.16487
3234.00000,21.67601
3236.00000,22.07402
3238.00000,21.58125
3240.00000,21.10043
3242.00000,20.94850
3244.00000,21.52991
3246.00000,21.35039
3248.00000,20.55422
3250.00000,20.63324
3252.00000,19.68055
3254.00000,20.01101
3256.00000,20.86201
3258.00000,21.38609
3260.00000,21.97492
3262.00000,20.95339
3264.00000,21.54235
3266.00000,22.06631
3268.00000,21.54948
3270.00000,21.11964
3272.00000,20.78368
3274.00000,20.70898
3276.00000,21.15668
3278.00000,21.09858
3280.00000,21.23860
3282.00000,22.14478
3284.00000,22.08049
3286.00000,21.66929
3288.00000,21.66000
3290.00000,23.07610
3292.00000,24.29912
3294.00000,26.72108
3296.00000,25.58565
3298.00000,23.46920
3300.00000,21.83637
3302.00000,20.60181
3304.00000,21.90672
3306.00000,22.07170
3308.00000,21.49041
3310.00000,22.82302
3312.00000,21.41365
3314.00000,23.70857
3316.00000,23.16772
3318.00000,22.92073
3320.00000,20.89153
3322.00000,20.81297
3324.00000,19.75887
3326.00000,21.59145
3328.00000,21.16161
3330.00000,21.58200
3332.00000,20.50221
3334.00000,20.97163
3336.00000,20.20163
3338.00000,21.35393
3340.00000,21.56086
3342.00000,21.61680
3344.00000,22.09517
3346.00000,21.84423
3348.00000,22.18279
3350.00000,22.49095
3352.00000,22.54122
3354.00000,22.63535
3356.00000,22.57549
3358.00000,22.67297
3360.00000,22.53613
3362.00000,23.22091
3364.00000,22.63889
3366.00000,22.58799
3368.00000,22.39139
3370.00000,21.87294
3372.00000,21.87477
3374.00000,21.72186
3376.00000,22.25794
3378.00000,21.52570
3380.00000,21.54377
3382.00000,21.97568
3384.00000,23.54635
3386.00000,23.98255
3388.00000,23.20178
3390.00000,21.85317
3392.00000,22.18304
3394.00000,21.28555
3396.00000,21.59529
3398.00000,22.48734
3400.00000,23.34556
3402.00000,23.76402
3404.00000,24.26415
3406.00000,23.10007
3408.00000,22.40272
3410.00000,22.16802
3412.00000,22.65932
3414.00000,22.89509
3416.00000,23.24022
3418.00000,21.61981
3420.00000,21.46465
3422.00000,21.71780
3424.00000,23.43166
3426.00000,23.19883
3428.00000,23.41677
3430.00000,22.24244
3432.00000,20.45007
3434.00000,20.13045
3436.00000,19.10339
3438.00000,19.89291
3440.00000,20.41241
3442.00000,20.49878
3444.00000,20.83532
3446.00000,21.19356
3448.00000,22.37556
3450.00000,22.41959
3452.00000,21.94504
3454.00000,21.62082
3456.00000,21.37497
3458.00000,20.29361
3460.00000,20.62383
3462.00000,21.05144
3464.00000,22.07314
3466.00000,21.36353
3468.00000,20.44579
3470.00000,20.14192
3472.00000,20.12118
3474.00000,20.93371
3476.00000,21.79189
3478.00000,22.34130
3480.00000,21.99677
3482.00000,21.03492
3484.00000,20.14619
3486.00000,19.90212
3488.00000,20.02116
3490.00000,20.00151
3492.00000,19.96832
3494.00000,19.93754
3496.00000,19.90623
3498.00000,19.87525
3500.00000,19.84435
3502.00000,19.81360
3504.00000,19.78303
3506.00000,19.75260
3508.00000,19.72231
3510.00000,19.69216
3512.00000,19.66218
3514.00000,19.63240
3516.00000,19.60278
3518.00000,19.57337
3520.00000,19.54412
3522.00000,19.51509
3524.00000,19.48626
3526.00000,19.45761
3528.00000,19.42920
3530.00000,19.40095
3532.00000,19.37295
3534.00000,19.34512
3536.00000,19.31755
3538.00000,19.29021
3540.00000,19.26310
3542.00000,19.23623
3544.00000,19.20957
3546.00000,19.18312
3548.00000,19.15691
3550.00000,19.13090
3552.00000,19.10519
3554.00000,19.07973
3556.00000,19.05455
3558.00000,19.02961
3560.00000,19.00492
3562.00000,18.98045
3564.00000,18.95624
3566.00000,18.93232
3568.00000,18.90866
3570.00000,18.88529
3572.00000,18.86215
3574.00000,18.83925
3576.00000,18.81663
3578.00000,18.79426
3580.00000,18.77218
3582.00000,18.75034
3584.00000,18.72875
3586.00000,18.70744
3588.00000,18.68644
3590.00000,18.66571
3592.00000,18.64524
3594.00000,18.62500
3596.00000,18.60506
3598.00000,18.58538
3600.00000,18.56596
3602.00000,18.54677
3604.00000,18.52785
3606.00000,18.50920
3608.00000,18.49084
3610.00000,18.47276
3612.00000,18.45497
3614.00000,18.43740
3616.00000,18.42012
3618.00000,18.40308
3620.00000,18.38631
3622.00000,18.36981
3624.00000,18.35352
3626.00000,18.33749
3628.00000,18.32170
3630.00000,18.30617
3632.00000,18.29095
3634.00000,18.27595
3636.00000,18.26121
3638.00000,18.24669
3640.00000,18.23238
3642.00000,18.21836
3644.00000,18.20454
3646.00000,18.19096
3648.00000,18.17762
3650.00000,18.16451
3652.00000,18.15166
3654.00000,18.13900
3656.00000,18.12657
3658.00000,18.11436
3660.00000,18.10240
3662.00000,18.09067
3664.00000,18.07915
3666.00000,18.06782
3668.00000,18.05672
3670.00000,18.04581
3672.00000,18.03513
3674.00000,18.02462
3676.00000,18.01433
3678.00000,18.00424
3680.00000,17.99438
3682.00000,17.98466
3684.00000,17.97514
3686.00000,17.96577
3688.00000,17.95658
3690.00000,17.94761
3692.00000,17.93884
3694.00000,17.93026
3696.00000,17.92185
3698.00000,17.91356
3700.00000,17.90542
3702.00000,17.89746
3704.00000,17.88970
3706.00000,17.88212
3708.00000,17.87470
3710.00000,17.86738
3712.00000,17.86021
3714.00000,17.85320
3716.00000,17.84633
3718.00000,17.83963
3720.00000,17.83310
3722.00000,17.82666
3724.00000,17.82036
3726.00000,17.81416
3728.00000,17.80813
3730.00000,17.80222
3732.00000,17.79645
3734.00000,17.79081
3736.00000,17.78530
3738.00000,17.77993
3740.00000,17.77464
3742.00000,17.76950
3744.00000,17.76445
3746.00000,17.75950
3748.00000,17.75463
3750.00000,17.74986
3752.00000,17.74526
3754.00000,17.74072
3756.00000,17.73631
3758.00000,17.73195
3760.00000,17.72766
3762.00000,17.72347
3764.00000,17.71936
3766.00000,17.71538
3768.00000,17.71146
3770.00000,17.70766
3772.00000,17.70393
3774.00000,17.70030
3776.00000,17.69673
3778.00000,17.69321
3780.00000,17.68977
3782.00000,17.68641
3784.00000,17.68314
3786.00000,17.67989
3788.00000,17.67670
3790.00000,17.67356
3792.00000,17.67052
3794.00000,17.66754
3796.00000,17.66463
3798.00000,17.66175
3800.00000,17.65897
3802.00000,17.65623
3804.00000,17.65355
3806.00000,17.65093
3808.00000,17.64834
3810.00000,17.64584
3812.00000,17.64338
3814.00000,17.64096
3816.00000,17.63861
3818.00000,17.63627
3820.00000,17.63398
3822.00000,17.63169
3824.00000,17.62946
3826.00000,17.62728
3828.00000,17.62516
3830.00000,17.62308
3832.00000,17.62101
3834.00000,17.61898
3836.00000,17.61700
3838.00000,17.61501
3840.00000,17.61308
3842.00000,17.61113
3844.00000,17.60925
3846.00000,17.60742
3848.00000,17.60561
3850.00000,17.60383
3852.00000,17.60207
3854.00000,17.60033
3856.00000,17.59862
3858.00000,17.59691
3860.00000,17.59527
3862.00000,17.59365
3864.00000,17.59208
3866.00000,17.59050
3868.00000,17.58893
3870.00000,17.58738
3872.00000,17.58587
3874.00000,17.58433
3876.00000,17.58284
3878.00000,17.58134
3880.00000,17.57987
3882.00000,17.57841
3884.00000,17.57697
3886.00000,17.57556
3888.00000,17.57418
3890.00000,17.57283
3892.00000,17.57149
3894.00000,17.57015
3896.00000,17.56882
3898.00000,17.56752
3900.00000,17.56623
3902.00000,17.56496
3904.00000,17.56366
3906.00000,17.56242
3908.00000,17.56120
3910.00000,17.55999
3912.00000,17.55882
3914.00000,17.55760
3916.00000,17.55642
3918.00000,17.55522
3920.00000,17.55404
3922.00000,17.55288
3924.00000,17.55177
3926.00000,17.55068
3928.00000,17.54957
3930.00000,17.54844
3932.00000,17.54733
3934.00000,17.54625
3936.00000,17.54522
3938.00000,17.54420
3940.00000,17.54317
3942.00000,17.54216
3944.00000,17.54113
3946.00000,17.54011
3948.00000,17.53910
3950.00000,17.53810
3952.00000,17.53708
3954.00000,17.53607
3956.00000,17.53511
3958.00000,17.53417
3960.00000,17.53326
3962.00000,17.53232
3964.00000,17.53141
3966.00000,17.53048
3968.00000,17.52957
3970.00000,17.52867
3972.00000,17.52781
3974.00000,17.52696
3976.00000,17.52609
3978.00000,17.52527
3980.00000,17.52442
3982.00000,17.52362
3984.00000,17.52278
3986.00000,17.52198
3988.00000,17.52118
3990.00000,17.52042
3992.00000,17.51964
3994.00000,17.51889
3996.00000,17.51818
3998.00000,17.51747
4000.00000,17.51678
4002.00000,17.51605
4004.00000,17.51536
4006.00000,17.51464
4008.00000,17.51398
4010.00000,17.51332
4012.00000,17.51269
4014.00000,17.51207
4016.00000,17.51148
4018.00000,17.51090
4020.00000,17.51033
4022.00000,17.50973
4024.00000,17.50911
4026.00000,17.50853
4028.00000,17.50797
4030.00000,17.50750
4032.00000,17.50701
4034.00000,17.50656
4036.00000,17.50607
4038.00000,17.50562
4040.00000,17.50518
4042.00000,17.50474
4044.00000,17.50432
4046.00000,17.50391
4048.00000,17.50354
4050.00000,17.50320
4052.00000,17.50288
4054.00000,17.50254
4056.00000,17.50220
4058.00000,17.50194
4060.00000,17.50171
4062.00000,17.50150
4064.00000,17.50124
4066.00000,17.50099
4068.00000,17.50077
4070.00000,17.50058
4072.00000,17.50043
4074.00000,17.50029
4076.00000,17.50018
4078.00000,17.50010
4080.00000,17.50004
4082.00000,17.50000
4084.00000,17.49997
4086.00000,17.49995
4088.00000,17.49997
4090.00000,17.49992
4092.00000,17.49992
4094.00000,17.49989
4096.00000,17.49989
4098.00000,17.49986
4100.00000,17.49985
4102.00000,17.49985
4104.00000,17.49989
4106.00000,17.49988
4108.00000,17.49988
4110.00000,17.49983
4112.00000,17.49983
4114.00000,17.49984
4116.00000,17.49985
4118.00000,17.49984
4120.00000,17.49985
4122.00000,17.49982
4124.00000,17.49984
4126.00000,17.49983
4128.00000,17.49984
4130.00000,17.49982
4132.00000,17.49981
4134.00000,17.49983
4136.00000,17.49981
4138.00000,17.49982
4140.00000,17.49981
4142.00000,17.49984
4144.00000,17.49983
4146.00000,17.49979
4148.00000,17.49977
4150.00000,17.49977
4152.00000,17.49981
4154.00000,17.49982
4156.00000,17.49981
4158.00000,17.49979
4160.00000,17.49981
4162.00000,17.49982
4164.00000,17.49984
4166.00000,17.49984
4168.00000,17.49980
4170.00000,17.49979
4172.00000,17.49974
4174.00000,17.49975
4176.00000,17.49977
4178.00000,17.49979
4180.00000,17.49980
4182.00000,17.49977
4184.00000,17.49975
4186.00000,17.49972
4188.00000,17.49970
4190.00000,17.49965
4192.00000,17.49969
4194.00000,17.49971
4196.00000,17.49973
4198.00000,17.49972
4200.00000,17.49973
4202.00000,17.49974
4204.00000,17.49974
4206.00000,17.49972
4208.00000,17.49969
4210.00000,17.49970
4212.00000,17.49971
4214.00000,17.49975
4216.00000,17.49977
4218.00000,17.49976
4220.00000,17.49975
4222.00000,17.49972
4224.00000,17.49972
4226.00000,17.49972
4228.00000,17.49971
4230.00000,17.49968
4232.00000,17.49967
4234.00000,17.49968
4236.00000,17.49971
4238.00000,17.49973
4240.00000,17.49970
4242.00000,17.49967
4244.00000,17.49962
4246.00000,17.49958
4248.00000,17.49956
4250.00000,17.49957
4252.00000,17.49960
4254.00000,17.49964
4256.00000,17.49977
4258.00000,17.49987
4260.00000,17.49997
4262.00000,17.50000
4264.00000,17.50000
4266.00000,17.50000
4268.00000,17.50000
4270.00000,17.50000
4272.00000,17.50000
4274.00000,17.50000
4276.00000,17.50000
4278.00000,10.00000
