100.00000,10.00000
102.00000,17.50000
104.00000,17.50000
106.00000,14.13188
108.00000,0.61281
110.00000,-6.47272
112.00000,-5.18638
114.00000,2.41647
116.00000,12.05768
118.00000,13.60605
120.00000,9.40745
122.00000,11.84702
124.00000,20.80590
126.00000,31.78270
128.00000,37.15443
130.00000,29.80472
132.00000,15.96781
134.00000,11.57921
136.00000,22.56509
138.00000,42.27833
140.00000,49.75998
142.00000,41.77491
144.00000,27.58232
146.00000,12.60334
148.00000,3.89793
150.00000,3.47399
152.00000,14.84648
154.00000,26.70563
156.00000,27.21196
158.00000,24.44604
160.00000,26.30230
162.00000,36.79946
164.00000,41.93518
166.00000,39.65358
168.00000,35.90626
170.00000,35.93180
172.00000,40.92721
174.00000,42.58714
176.00000,35.59666
178.00000,27.36989
180.00000,23.56159
182.00000,27.74451
184.00000,38.57162
186.00000,46.29833
188.00000,46.29477
190.00000,46.70979
192.00000,51.67357
194.00000,60.40718
196.00000,64.20109
198.00000,63.53416
200.00000,64.91313
202.00000,66.19361
204.00000,64.16019
206.00000,54.89437
208.00000,46.05576
210.00000,49.60445
212.00000,59.31410
214.00000,57.57299
216.00000,61.91996
218.00000,72.15395
220.00000,77.51646
222.00000,83.44364
224.00000,84.93776
226.00000,91.40646
228.00000,98.75795
230.00000,100.52244
232.00000,100.54035
234.00000,100.88871
236.00000,106.47949
238.00000,113.29877
240.00000,113.82103
242.00000,109.63451
244.00000,106.30926
246.00000,113.24715
248.00000,120.93044
250.00000,118.10650
252.00000,103.16627
254.00000,90.82758
256.00000,88.55674
258.00000,91.25011
260.00000,93.77224
262.00000,90.38724
264.00000,85.04960
266.00000,80.76261
268.00000,68.38171
270.00000,56.33277
272.00000,60.77776
274.00000,71.54214
276.00000,83.19555
278.00000,84.54727
280.00000,76.00619
282.00000,68.40555
284.00000,65.13849
286.00000,67.64937
288.00000,71.04551
290.00000,72.00745
292.00000,72.45558
294.00000,77.69637
296.00000,85.90764
298.00000,90.60494
300.00000,97.66057
302.00000,103.66870
304.00000,109.38219
306.00000,116.09086
308.00000,117.33429
310.00000,115.48364
312.00000,112.11975
314.00000,109.97056
316.00000,107.72853
318.00000,103.33538
320.00000,105.76959
322.00000,104.72993
324.00000,96.76323
326.00000,86.29316
328.00000,72.80474
330.00000,68.21478
332.00000,71.55388
334.00000,69.90979
336.00000,61.40789
338.00000,49.05447
340.00000,43.53544
342.00000,43.89457
344.00000,44.75941
346.00000,45.34798
348.00000,52.42067
350.00000,63.28050
352.00000,68.39526
354.00000,70.60368
356.00000,81.14523
358.00000,100.56239
360.00000,108.22388
362.00000,106.08513
364.00000,95.72569
366.00000,88.59007
368.00000,87.89697
370.00000,88.19856
372.00000,90.17584
374.00000,91.67250
376.00000,87.00471
378.00000,74.35803
380.00000,59.18377
382.00000,52.06223
384.00000,50.95457
386.00000,47.39944
388.00000,37.37070
390.00000,37.31513
392.00000,43.37947
394.00000,47.72107
396.00000,56.06995
398.00000,53.36026
400.00000,49.87127
402.00000,50.39728
404.00000,44.01334
406.00000,42.90861
408.00000,46.55795
410.00000,49.45263
412.00000,52.12403
414.00000,46.82360
416.00000,36.73104
418.00000,33.04076
420.00000,31.00715
422.00000,28.13880
424.00000,27.32595
426.00000,30.31721
428.00000,34.61184
430.00000,32.29800
432.00000,31.03919
434.00000,30.24686
436.00000,28.29467
438.00000,19.69662
440.00000,17.25581
442.00000,16.96460
444.00000,20.94833
446.00000,34.35593
448.00000,37.21085
450.00000,37.03933
452.00000,33.29448
454.00000,22.74580
456.00000,28.91885
458.00000,44.36251
460.00000,56.56559
462.00000,65.22645
464.00000,60.83283
466.00000,55.00206
468.00000,58.07695
470.00000,64.63763
472.00000,73.28444
474.00000,79.94854
476.00000,84.97303
478.00000,84.09329
480.00000,79.61656
482.00000,77.66596
484.00000,81.26060
486.00000,82.08009
488.00000,73.70028
490.00000,61.35046
492.00000,53.43909
494.00000,59.25719
496.00000,66.42271
498.00000,60.13350
500.00000,51.41010
502.00000,39.91758
504.00000,38.73094
506.00000,53.69061
508.00000,59.74141
510.00000,62.29655
512.00000,63.67340
514.00000,67.25987
516.00000,79.47903
518.00000,80.84641
520.00000,69.89290
522.00000,66.90921
524.00000,59.90923
526.00000,59.36871
528.00000,63.55045
530.00000,62.50431
532.00000,71.33482
534.00000,83.15466
536.00000,89.43047
538.00000,77.74117
540.00000,67.37515
542.00000,64.72744
544.00000,70.08582
546.00000,86.03102
548.00000,88.03596
550.00000,81.59647
552.00000,72.77161
554.00000,65.10434
556.00000,62.88708
558.00000,64.68835
560.00000,66.86005
562.00000,61.20992
564.00000,55.02163
566.00000,43.15582
568.00000,29.32033
570.00000,32.51194
572.00000,37.32746
574.00000,43.78970
576.00000,44.63979
578.00000,36.69450
580.00000,35.19759
582.00000,30.70515
584.00000,19.21142
586.00000,18.68320
588.00000,18.61947
590.00000,22.95711
592.00000,25.54303
594.00000,24.98784
596.00000,21.23597
598.00000,21.27351
600.00000,25.25878
602.00000,24.65976
604.00000,26.15181
606.00000,24.85346
608.00000,22.57226
610.00000,18.55371
612.00000,20.20888
614.00000,24.01371
616.00000,29.49756
618.00000,34.78638
620.00000,36.60651
622.00000,40.27880
624.00000,39.66357
626.00000,29.96337
628.00000,22.33223
630.00000,19.62935
632.00000,27.70410
634.00000,39.22416
636.00000,42.05078
638.00000,42.29688
640.00000,40.95313
642.00000,40.47499
644.00000,39.65574
646.00000,34.51458
648.00000,32.31660
650.00000,35.38574
652.00000,38.90211
654.00000,39.79607
656.00000,38.81219
658.00000,36.21263
660.00000,35.26174
662.00000,45.06972
664.00000,46.70893
666.00000,49.61246
668.00000,50.81773
670.00000,42.72279
672.00000,44.98392
674.00000,46.49654
676.00000,48.93616
678.00000,49.44027
680.00000,42.39325
682.00000,31.05122
684.00000,19.93826
686.00000,15.62375
688.00000,21.62672
690.00000,28.93436
692.00000,31.94753
694.00000,25.23031
696.00000,14.98330
698.00000,19.74924
700.00000,27.70700
702.00000,40.03275
704.00000,50.13869
706.00000,48.93971
708.00000,43.70810
710.00000,35.69365
712.00000,29.37516
714.00000,26.97619
716.00000,31.18821
718.00000,35.99584
720.00000,41.19741
722.00000,45.62440
724.00000,49.28552
726.00000,48.55315
728.00000,48.84526
730.00000,48.61634
732.00000,48.90763
734.00000,51.69603
736.00000,44.22481
738.00000,39.79298
740.00000,41.02741
742.00000,44.34362
744.00000,50.48824
746.00000,47.71862
748.00000,45.09803
750.00000,46.15685
752.00000,46.39239
754.00000,46.97788
756.00000,46.32949
758.00000,43.61382
760.00000,40.56144
762.00000,43.18934
764.00000,43.03843
766.00000,44.68889
768.00000,45.63953
770.00000,41.60871
772.00000,27.83278
774.00000,27.29013
776.00000,28.34553
778.00000,30.12162
780.00000,30.59317
782.00000,30.72915
784.00000,22.99797
786.00000,23.13454
788.00000,23.57325
790.00000,23.97262
792.00000,39.88252
794.00000,43.54245
796.00000,49.11158
798.00000,50.32122
800.00000,43.70022
802.00000,41.26768
804.00000,41.16508
806.00000,38.75946
808.00000,37.38935
810.00000,43.54404
812.00000,49.95991
814.00000,51.87449
816.00000,46.51386
818.00000,42.06339
820.00000,44.28283
822.00000,47.01451
824.00000,43.79260
826.00000,36.15711
828.00000,32.53189
830.00000,37.42483
832.00000,47.05345
834.00000,52.29877
836.00000,52.97672
838.00000,51.38347
840.00000,51.37592
842.00000,49.86948
844.00000,39.42170
846.00000,39.81031
848.00000,44.61021
850.00000,51.70048
852.00000,62.31314
854.00000,67.52698
856.00000,63.37541
858.00000,58.04102
860.00000,53.12052
862.00000,50.59610
864.00000,54.03053
866.00000,54.47524
868.00000,51.29022
870.00000,46.04929
872.00000,40.02351
874.00000,35.05213
876.00000,35.18392
878.00000,37.71986
880.00000,36.59980
882.00000,30.84861
884.00000,22.74015
886.00000,14.38640
888.00000,23.76329
890.00000,31.03007
892.00000,33.65314
894.00000,30.19563
896.00000,26.54595
898.00000,37.86509
900.00000,48.90211
902.00000,52.60143
904.00000,47.72995
906.00000,45.28761
908.00000,54.08065
910.00000,60.72320
912.00000,62.87351
914.00000,52.15157
916.00000,41.50803
918.00000,41.48483
920.00000,39.92126
922.00000,46.55967
924.00000,53.36515
926.00000,54.76245
928.00000,51.89425
930.00000,51.65395
932.00000,46.08906
934.00000,40.49223
936.00000,34.14605
938.00000,29.73806
940.00000,28.93032
942.00000,31.35831
944.00000,35.66764
946.00000,43.35279
948.00000,52.84723
950.00000,52.58727
952.00000,43.25634
954.00000,37.15074
956.00000,32.46702
958.00000,27.78656
960.00000,32.35246
962.00000,37.62333
964.00000,37.57089
966.00000,32.26563
968.00000,22.10991
970.00000,10.67230
972.00000,16.53275
974.00000,27.93120
976.00000,34.71649
978.00000,33.23689
980.00000,25.91353
982.00000,19.96168
984.00000,25.07499
986.00000,32.74982
988.00000,35.88971
990.00000,33.50734
992.00000,29.85885
994.00000,19.32946
996.00000,18.73110
998.00000,21.47154
1000.00000,29.35742
1002.00000,36.06489
1004.00000,36.97844
1006.00000,40.15896
1008.00000,36.53790
1010.00000,38.24657
1012.00000,41.22037
1014.00000,43.44746
1016.00000,43.47137
1018.00000,42.40531
1020.00000,44.23467
1022.00000,53.05241
1024.00000,57.70851
1026.00000,64.14450
1028.00000,61.75497
1030.00000,44.43091
1032.00000,39.45029
1034.00000,30.75266
1036.00000,32.65961
1038.00000,33.76608
1040.00000,26.77341
1042.00000,20.29347
1044.00000,23.29573
1046.00000,28.01710
1048.00000,40.45664
1050.00000,45.08991
1052.00000,44.99917
1054.00000,43.31956
1056.00000,41.80660
1058.00000,39.06516
1060.00000,33.70672
1062.00000,29.75144
1064.00000,24.16150
1066.00000,34.50500
1068.00000,45.82955
1070.00000,55.39443
1072.00000,68.25558
1074.00000,70.10913
1076.00000,75.05134
1078.00000,81.74500
1080.00000,82.30857
1082.00000,85.08052
1084.00000,88.04801
1086.00000,88.90640
1088.00000,88.96739
1090.00000,79.48412
1092.00000,72.26414
1094.00000,66.15076
1096.00000,69.97508
1098.00000,75.72353
1100.00000,76.36739
1102.00000,72.66052
1104.00000,67.04971
1106.00000,72.51841
1108.00000,73.48861
1110.00000,78.46912
1112.00000,78.22903
1114.00000,75.79323
1116.00000,73.33224
1118.00000,65.46322
1120.00000,56.08941
1122.00000,53.78564
1124.00000,55.72167
1126.00000,63.72566
1128.00000,68.81545
1130.00000,69.71024
1132.00000,69.81291
1134.00000,68.37976
1136.00000,68.86317
1138.00000,78.66711
1140.00000,80.63641
1142.00000,86.88832
1144.00000,86.37199
1146.00000,82.42848
1148.00000,78.48102
1150.00000,69.95490
1152.00000,62.38241
1154.00000,67.45481
1156.00000,84.16245
1158.00000,104.53816
1160.00000,114.91484
1162.00000,113.26733
1164.00000,112.17878
1166.00000,114.97065
1168.00000,113.41532
1170.00000,113.95265
1172.00000,119.05070
1174.00000,122.17426
1176.00000,136.20036
1178.00000,151.27135
1180.00000,158.48788
1182.00000,160.38158
1184.00000,155.77948
1186.00000,145.06248
1188.00000,151.79852
1190.00000,149.79468
1192.00000,162.55667
1194.00000,168.99632
1196.00000,178.54565
1198.00000,191.69528
1200.00000,203.49799
1202.00000,219.84865
1204.00000,236.43317
1206.00000,239.38127
1208.00000,253.54250
1210.00000,251.71408
1212.00000,266.05591
1214.00000,275.65735
1216.00000,285.45474
1218.00000,299.99142
1220.00000,312.31366
1222.00000,326.64734
1224.00000,347.72903
1226.00000,360.99899
1228.00000,375.12177
1230.00000,384.14661
1232.00000,383.39731
1234.00000,387.46317
1236.00000,397.34070
1238.00000,412.22003
1240.00000,424.29987
1242.00000,425.92209
1244.00000,417.66766
1246.00000,403.38815
1248.00000,405.27988
1250.00000,400.06143
1252.00000,417.60178
1254.00000,428.01614
1256.00000,436.30228
1258.00000,446.93860
1260.00000,446.48077
1262.00000,448.10529
1264.00000,458.80713
1266.00000,456.74509
1268.00000,473.27878
1270.00000,470.14206
1272.00000,470.78418
1274.00000,470.43192
1276.00000,464.99173
1278.00000,456.69638
1280.00000,449.54477
1282.00000,450.54587
1284.00000,461.43961
1286.00000,474.92184
1288.00000,481.77817
1290.00000,484.01535
1292.00000,490.70547
1294.00000,498.72714
1296.00000,499.59070
1298.00000,494.07407
1300.00000,495.34647
1302.00000,497.12320
1304.00000,502.77225
1306.00000,510.15625
1308.00000,517.49115
1310.00000,529.03632
1312.00000,537.23267
1314.00000,540.12054
1316.00000,539.26587
1318.00000,539.87048
1320.00000,539.62646
1322.00000,543.57697
1324.00000,544.43628
1326.00000,550.88586
1328.00000,555.17010
1330.00000,552.08948
1332.00000,544.60925
1334.00000,528.92413
1336.00000,514.78052
1338.00000,511.97879
1340.00000,502.67856
1342.00000,500.69632
1344.00000,487.38950
1346.00000,480.44812
1348.00000,475.27869
1350.00000,478.53534
1352.00000,479.40350
1354.00000,469.84604
1356.00000,452.64059
1358.00000,439.63794
1360.00000,429.12796
1362.00000,421.61078
1364.00000,416.38522
1366.00000,403.75409
1368.00000,393.86243
1370.00000,381.45822
1372.00000,377.00873
1374.00000,364.17697
1376.00000,373.09363
1378.00000,369.30603
1380.00000,365.34409
1382.00000,340.93488
1384.00000,324.67084
1386.00000,317.31421
1388.00000,327.35724
1390.00000,342.22748
1392.00000,343.71619
1394.00000,343.87857
1396.00000,343.95377
1398.00000,337.80850
1400.00000,329.78378
1402.00000,323.56561
1404.00000,323.43826
1406.00000,327.78922
1408.00000,330.74017
1410.00000,330.11490
1412.00000,334.63348
1414.00000,335.99945
1416.00000,329.98221
1418.00000,333.52771
1420.00000,332.50351
1422.00000,346.31656
1424.00000,353.84937
1426.00000,349.04333
1428.00000,349.05850
1430.00000,345.04172
1432.00000,341.89804
1434.00000,343.10706
1436.00000,340.86124
1438.00000,342.75070
1440.00000,345.75720
1442.00000,344.06158
1444.00000,345.07834
1446.00000,333.91568
1448.00000,329.83847
1450.00000,323.85489
1452.00000,320.61191
1454.00000,309.01147
1456.00000,302.58734
1458.00000,280.29477
1460.00000,265.53152
1462.00000,248.05986
1464.00000,240.64828
1466.00000,235.30972
1468.00000,227.94360
1470.00000,222.87411
1472.00000,213.63440
1474.00000,207.95006
1476.00000,198.29486
1478.00000,184.03055
1480.00000,183.18582
1482.00000,185.44969
1484.00000,186.11897
1486.00000,177.57326
1488.00000,161.30589
1490.00000,147.98198
1492.00000,140.87169
1494.00000,140.05844
1496.00000,141.87469
1498.00000,146.68257
1500.00000,145.95502
1502.00000,144.29253
1504.00000,152.96130
1506.00000,146.29642
1508.00000,145.98607
1510.00000,135.74568
1512.00000,129.83981
1514.00000,128.62991
1516.00000,126.72066
1518.00000,120.03091
1520.00000,111.70430
1522.00000,117.70672
1524.00000,119.46122
1526.00000,118.81432
1528.00000,121.18044
1530.00000,123.29876
1532.00000,126.39307
1534.00000,126.20606
1536.00000,124.61330
1538.00000,131.23843
1540.00000,141.62656
1542.00000,146.04742
1544.00000,149.66829
1546.00000,154.32167
1548.00000,158.19226
1550.00000,154.55667
1552.00000,147.85326
1554.00000,135.75870
1556.00000,134.14914
1558.00000,126.52220
1560.00000,127.72928
1562.00000,110.73196
1564.00000,112.50624
1566.00000,111.61786
1568.00000,112.26955
1570.00000,112.22196
1572.00000,105.08549
1574.00000,108.25023
1576.00000,102.08575
1578.00000,99.17717
1580.00000,92.68850
1582.00000,93.77791
1584.00000,88.68871
1586.00000,90.25985
1588.00000,85.75122
1590.00000,91.08595
1592.00000,100.09697
1594.00000,100.04452
1596.00000,96.92290
1598.00000,92.81792
1600.00000,91.04622
1602.00000,90.26160
1604.00000,95.21873
1606.00000,98.44215
1608.00000,102.80556
1610.00000,105.26143
1612.00000,106.01817
1614.00000,104.86169
1616.00000,101.56913
1618.00000,108.89336
1620.00000,109.46604
1622.00000,112.15871
1624.00000,112.78407
1626.00000,115.20037
1628.00000,114.22094
1630.00000,109.49108
1632.00000,104.21651
1634.00000,114.55038
1636.00000,120.84248
1638.00000,132.93460
1640.00000,126.10934
1642.00000,126.69138
1644.00000,124.96011
1646.00000,120.91649
1648.00000,120.51810
1650.00000,112.74815
1652.00000,122.89235
1654.00000,128.38818
1656.00000,131.95450
1658.00000,131.53600
1660.00000,130.41035
1662.00000,130.72311
1664.00000,138.13022
1666.00000,135.30064
1668.00000,130.87207
1670.00000,130.53073
1672.00000,128.49345
1674.00000,129.79884
1676.00000,122.16439
1678.00000,114.84938
1680.00000,108.70837
1682.00000,103.40164
1684.00000,85.73666
1686.00000,82.76714
1688.00000,73.63347
1690.00000,84.87630
1692.00000,79.55098
1694.00000,74.64919
1696.00000,65.99902
1698.00000,62.04681
1700.00000,53.29803
1702.00000,44.12754
1704.00000,34.24206
1706.00000,27.99407
1708.00000,23.76133
1710.00000,21.02836
1712.00000,21.68490
1714.00000,24.47444
1716.00000,24.84775
1718.00000,19.41817
1720.00000,15.35314
1722.00000,18.26059
1724.00000,20.08694
1726.00000,21.89421
1728.00000,18.43147
1730.00000,16.01561
1732.00000,17.77027
1734.00000,18.48372
1736.00000,25.68270
1738.00000,28.52788
1740.00000,30.43184
1742.00000,29.34976
1744.00000,32.21203
1746.00000,37.84715
1748.00000,42.78521
1750.00000,35.34169
1752.00000,32.69997
1754.00000,27.54607
1756.00000,29.15417
1758.00000,30.66901
1760.00000,30.09855
1762.00000,27.32440
1764.00000,25.80306
1766.00000,19.02220
1768.00000,40.71375
1770.00000,165.30400
1772.00000,347.83264
1774.00000,301.25131
1776.00000,252.33278
1778.00000,79.77223
1780.00000,31.61607
1782.00000,31.99739
1784.00000,31.77945
1786.00000,34.51285
1788.00000,37.87478
1790.00000,35.80483
1792.00000,33.29108
1794.00000,31.36904
1796.00000,27.38305
1798.00000,27.48909
1800.00000,23.55805
1802.00000,24.26965
1804.00000,21.81393
1806.00000,19.04503
1808.00000,22.69044
1810.00000,20.75416
1812.00000,23.62832
1814.00000,21.07069
1816.00000,26.50318
1818.00000,26.04204
1820.00000,28.10218
1822.00000,22.84079
1824.00000,21.36839
1826.00000,23.18451
1828.00000,23.95590
1830.00000,26.51124
1832.00000,30.29336
1834.00000,30.35003
1836.00000,28.58844
1838.00000,23.22071
1840.00000,14.38149
1842.00000,16.10108
1844.00000,19.01348
1846.00000,25.81279
1848.00000,28.41175
1850.00000,28.03655
1852.00000,25.72187
1854.00000,27.17156
1856.00000,23.98805
1858.00000,30.69727
1860.00000,28.48088
1862.00000,38.24795
1864.00000,36.73446
1866.00000,33.58461
1868.00000,35.79134
1870.00000,34.82044
1872.00000,33.47405
1874.00000,34.68749
1876.00000,32.41689
1878.00000,30.79058
1880.00000,33.87178
1882.00000,29.89852
1884.00000,31.18782
1886.00000,30.49701
1888.00000,24.81385
1890.00000,25.83120
1892.00000,22.93352
1894.00000,28.68853
1896.00000,22.77449
1898.00000,24.73338
1900.00000,25.17462
1902.00000,25.36195
1904.00000,31.19840
1906.00000,27.18432
1908.00000,28.66238
1910.00000,26.53733
1912.00000,23.05065
1914.00000,22.45992
1916.00000,21.67083
1918.00000,19.22903
1920.00000,18.85566
1922.00000,15.75697
1924.00000,16.42730
1926.00000,17.66700
1928.00000,22.10226
1930.00000,26.59334
1932.00000,28.10968
1934.00000,31.68952
1936.00000,28.76487
1938.00000,29.33209
1940.00000,23.72070
1942.00000,21.68347
1944.00000,18.29415
1946.00000,17.49855
1948.00000,17.83148
1950.00000,17.69673
1952.00000,18.86431
1954.00000,18.32259
1956.00000,19.93853
1958.00000,20.34345
1960.00000,20.26384
1962.00000,20.65834
1964.00000,15.92984
1966.00000,15.18256
1968.00000,21.81147
1970.00000,24.01340
1972.00000,31.93532
1974.00000,31.07313
1976.00000,28.25244
1978.00000,21.99447
1980.00000,23.06340
1982.00000,24.08408
1984.00000,26.23742
1986.00000,34.33961
1988.00000,28.74325
1990.00000,27.95091
1992.00000,22.70878
1994.00000,22.62222
1996.00000,24.71189
1998.00000,29.11352
2000.00000,25.16575
2002.00000,21.46377
2004.00000,19.91311
2006.00000,21.76970
2008.00000,22.40111
2010.00000,27.82311
2012.00000,25.26485
2014.00000,26.41940
2016.00000,22.64826
2018.00000,24.69323
2020.00000,24.71932
2022.00000,28.99655
2024.00000,27.34593
2026.00000,26.76547
2028.00000,26.65326
2030.00000,23.27819
2032.00000,21.35638
2034.00000,19.51989
2036.00000,18.01613
2038.00000,23.20291
2040.00000,21.80929
2042.00000,20.75343
2044.00000,24.03914
2046.00000,24.21931
2048.00000,26.67853
2050.00000,27.56047
2052.00000,26.69949
2054.00000,30.41837
2056.00000,31.20501
2058.00000,28.48177
2060.00000,27.30342
2062.00000,27.99708
2064.00000,27.60076
2066.00000,29.80442
2068.00000,31.17304
2070.00000,30.60424
2072.00000,30.52419
2074.00000,22.18807
2076.00000,21.21172
2078.00000,17.32014
2080.00000,19.47792
2082.00000,21.93647
2084.00000,27.19719
2086.00000,31.39322
2088.00000,32.68670
2090.00000,32.47374
2092.00000,29.53932
2094.00000,30.99225
2096.00000,30.15967
2098.00000,31.98149
2100.00000,29.60585
2102.00000,28.16908
2104.00000,27.17369
2106.00000,27.83252
2108.00000,28.13527
2110.00000,29.00033
2112.00000,24.77746
2114.00000,25.10072
2116.00000,24.47673
2118.00000,24.65857
2120.00000,22.68430
2122.00000,24.04069
2124.00000,22.34011
2126.00000,29.36791
2128.00000,29.34756
2130.00000,27.66485
2132.00000,42.97841
2134.00000,58.86826
2136.00000,57.14919
2138.00000,45.46073
2140.00000,30.17888
2142.00000,27.50574
2144.00000,31.63344
2146.00000,30.17177
2148.00000,25.76457
2150.00000,25.83711
2152.00000,27.81742
2154.00000,30.19765
2156.00000,30.58694
2158.00000,25.77579
2160.00000,26.44159
2162.00000,20.90369
2164.00000,25.67178
2166.00000,24.06414
2168.00000,27.32244
2170.00000,31.26585
2172.00000,30.78475
2174.00000,30.66416
2176.00000,29.30416
2178.00000,28.68750
2180.00000,32.19921
2182.00000,30.97646
2184.00000,29.00260
2186.00000,28.99737
2188.00000,28.75482
2190.00000,29.84730
2192.00000,30.89196
2194.00000,32.48344
2196.00000,34.13077
2198.00000,32.85021
2200.00000,31.38987
2202.00000,26.29839
2204.00000,23.65890
2206.00000,21.09351
2208.00000,25.48211
2210.00000,23.28906
2212.00000,23.23166
2214.00000,21.45258
2216.00000,23.73751
2218.00000,27.84795
2220.00000,30.07607
2222.00000,28.88723
2224.00000,30.45224
2226.00000,27.10843
2228.00000,27.90939
2230.00000,29.40115
2232.00000,31.28409
2234.00000,30.42390
2236.00000,31.49696
2238.00000,27.08728
2240.00000,30.17807
2242.00000,29.37407
2244.00000,30.75357
2246.00000,30.46367
2248.00000,29.32299
2250.00000,30.14276
2252.00000,31.32667
2254.00000,37.20748
2256.00000,36.57882
2258.00000,38.01950
2260.00000,32.55991
2262.00000,33.30603
2264.00000,32.25506
2266.00000,31.67452
2268.00000,30.82858
2270.00000,29.86756
2272.00000,30.45697
2274.00000,30.57414
2276.00000,34.29520
2278.00000,33.61317
2280.00000,33.24572
2282.00000,33.72047
2284.00000,30.93531
2286.00000,33.52002
2288.00000,30.81186
2290.00000,32.76615
2292.00000,31.02191
2294.00000,33.23032
2296.00000,34.86654
2298.00000,35.07214
2300.00000,40.00761
2302.00000,37.06184
2304.00000,39.06573
2306.00000,35.37883
2308.00000,39.30624
2310.00000,37.65580
2312.00000,34.60751
2314.00000,32.71321
2316.00000,30.53230
2318.00000,33.27457
2320.00000,35.02693
2322.00000,40.79509
2324.00000,51.32756
2326.00000,64.87262
2328.00000,85.18222
2330.00000,101.85349
2332.00000,107.55538
2334.00000,100.42662
2336.00000,86.26187
2338.00000,69.52361
2340.00000,59.67521
2342.00000,52.09135
2344.00000,45.67412
2346.00000,47.16695
2348.00000,47.02060
2350.00000,48.22979
2352.00000,46.01900
2354.00000,45.34058
2356.00000,41.92506
2358.00000,41.75729
2360.00000,40.06007
2362.00000,38.03751
2364.00000,41.74102
2366.00000,39.95367
2368.00000,41.78434
2370.00000,42.52526
2372.00000,44.59794
2374.00000,45.33806
2376.00000,42.79230
2378.00000,40.92823
2380.00000,42.68998
2382.00000,44.73218
2384.00000,46.91989
2386.00000,45.91254
2388.00000,45.73733
2390.00000,46.34001
2392.00000,45.28059
2394.00000,46.87051
2396.00000,42.14983
2398.00000,44.17970
2400.00000,39.23301
2402.00000,39.95750
2404.00000,35.55405
2406.00000,38.56571
2408.00000,38.17322
2410.00000,42.84756
2412.00000,44.24508
2414.00000,43.52653
2416.00000,41.12572
2418.00000,40.50950
2420.00000,40.79151
2422.00000,41.13076
2424.00000,41.08498
2426.00000,40.48393
2428.00000,41.36676
2430.00000,42.03220
2432.00000,41.55910
2434.00000,40.40733
2436.00000,40.45370
2438.00000,37.99858
2440.00000,38.64460
2442.00000,38.72190
2444.00000,43.24179
2446.00000,39.72638
2448.00000,43.13440
2450.00000,37.42606
2452.00000,40.72464
2454.00000,42.31135
2456.00000,42.90263
2458.00000,46.86060
2460.00000,45.52951
2462.00000,46.90423
2464.00000,42.46673
2466.00000,40.92866
2468.00000,38.67081
2470.00000,41.71100
2472.00000,43.04098
2474.00000,42.38276
2476.00000,42.00105
2478.00000,41.14336
2480.00000,41.37843
2482.00000,39.96677
2484.00000,42.39938
2486.00000,42.44099
2488.00000,44.13285
2490.00000,42.82771
2492.00000,41.44128
2494.00000,41.04766
2496.00000,40.52263
2498.00000,40.56551
2500.00000,41.11086
2502.00000,38.75350
2504.00000,38.66281
2506.00000,37.75632
2508.00000,38.56408
2510.00000,38.64244
2512.00000,37.28922
2514.00000,33.83694
2516.00000,34.26350
2518.00000,34.90627
2520.00000,39.30104
2522.00000,39.40993
2524.00000,38.15776
2526.00000,36.16860
2528.00000,37.48775
2530.00000,37.60220
2532.00000,39.50523
2534.00000,37.94680
2536.00000,36.74783
2538.00000,35.85443
2540.00000,32.61039
2542.00000,32.07465
2544.00000,31.07719
2546.00000,34.25327
2548.00000,36.17168
2550.00000,38.67173
2552.00000,34.26490
2554.00000,32.01720
2556.00000,28.42198
2558.00000,30.83468
2560.00000,32.55834
2562.00000,32.86646
2564.00000,32.64291
2566.00000,31.52795
2568.00000,32.32679
2570.00000,33.16744
2572.00000,33.99282
2574.00000,32.12451
2576.00000,34.58318
2578.00000,34.47505
2580.00000,35.42912
2582.00000,36.82687
2584.00000,33.68460
2586.00000,35.37788
2588.00000,31.97776
2590.00000,31.42780
2592.00000,28.99439
2594.00000,25.33339
2596.00000,26.70036
2598.00000,26.21591
2600.00000,28.88503
2602.00000,29.90452
2604.00000,30.54156
2606.00000,31.88894
2608.00000,29.27788
2610.00000,28.10910
2612.00000,25.44999
2614.00000,26.22676
2616.00000,25.65967
2618.00000,26.01073
2620.00000,28.63696
2622.00000,29.37625
2624.00000,31.08382
2626.00000,32.95583
2628.00000,30.85156
2630.00000,33.74775
2632.00000,30.10131
2634.00000,30.01749
2636.00000,28.98446
2638.00000,29.86909
2640.00000,29.77921
2642.00000,30.53600
2644.00000,28.87208
2646.00000,27.21128
2648.00000,26.02895
2650.00000,26.86966
2652.00000,28.19481
2654.00000,30.27921
2656.00000,30.13206
2658.00000,32.15983
2660.00000,27.16959
2662.00000,28.04899
2664.00000,25.42248
2666.00000,25.61921
2668.00000,27.29255
2670.00000,27.27847
2672.00000,27.94566
2674.00000,26.84311
2676.00000,24.24997
2678.00000,26.38558
2680.00000,25.15161
2682.00000,27.58448
2684.00000,27.66934
2686.00000,25.45672
2688.00000,23.61024
2690.00000,23.53254
2692.00000,23.87348
2694.00000,26.87237
2696.00000,25.85225
2698.00000,28.40126
2700.00000,26.78645
2702.00000,27.57455
2704.00000,27.36847
2706.00000,27.37364
2708.00000,24.44650
2710.00000,22.07792
2712.00000,21.68663
2714.00000,20.40384
2716.00000,22.82846
2718.00000,22.99972
2720.00000,25.03434
2722.00000,23.99874
2724.00000,25.14717
2726.00000,27.16999
2728.00000,26.19072
2730.00000,25.78292
2732.00000,22.56310
2734.00000,22.97275
2736.00000,21.78205
2738.00000,22.83424
2740.00000,24.44179
2742.00000,26.37729
2744.00000,24.64886
2746.00000,24.58430
2748.00000,22.95489
2750.00000,21.78908
2752.00000,21.24974
2754.00000,25.47683
2756.00000,25.81871
2758.00000,27.94613
2760.00000,25.31862
2762.00000,24.25161
2764.00000,24.92336
2766.00000,25.55346
2768.00000,26.94359
2770.00000,27.09294
2772.00000,26.52441
2774.00000,26.27993
2776.00000,25.26695
2778.00000,24.75549
2780.00000,26.09890
2782.00000,28.57962
2784.00000,28.26220
2786.00000,28.26603
2788.00000,27.07194
2790.00000,27.14854
2792.00000,27.49406
2794.00000,26.31968
2796.00000,26.29063
2798.00000,26.86298
2800.00000,26.23014
2802.00000,25.56182
2804.00000,26.02015
2806.00000,25.95772
2808.00000,25.88704
2810.00000,24.95929
2812.00000,24.24092
2814.00000,23.96919
2816.00000,24.01085
2818.00000,24.69464
2820.00000,24.62810
2822.00000,22.87128
2824.00000,22.09572
2826.00000,19.69973
2828.00000,19.03402
2830.00000,18.55097
2832.00000,19.42749
2834.00000,20.97407
2836.00000,22.34803
2838.00000,23.50953
2840.00000,23.75599
2842.00000,23.42472
2844.00000,23.27556
2846.00000,23.82716
2848.00000,24.78945
2850.00000,25.49131
2852.00000,24.56286
2854.00000,22.96004
2856.00000,23.43078
2858.00000,23.71026
2860.00000,24.12500
2862.00000,21.92402
2864.00000,20.77841
2866.00000,20.53074
2868.00000,22.14628
2870.00000,20.39308
2872.00000,21.59282
2874.00000,20.34013
2876.00000,22.74355
2878.00000,21.89425
2880.00000,22.61006
2882.00000,23.68992
2884.00000,23.47990
2886.00000,22.43648
2888.00000,23.63737
2890.00000,25.16652
2892.00000,28.37211
2894.00000,26.30673
2896.00000,26.05140
2898.00000,24.93866
2900.00000,26.08118
2902.00000,27.08592
2904.00000,28.45499
2906.00000,27.09019
2908.00000,26.56032
2910.00000,26.07106
2912.00000,25.07580
2914.00000,25.34472
2916.00000,23.78997
2918.00000,24.97179
2920.00000,26.10580
2922.00000,27.79279
2924.00000,27.78813
2926.00000,29.40445
2928.00000,28.72777
2930.00000,30.08512
2932.00000,28.50537
2934.00000,27.59378
2936.00000,27.95723
2938.00000,28.85643
2940.00000,31.49180
2942.00000,30.33080
2944.00000,32.26083
2946.00000,32.16238
2948.00000,34.16449
2950.00000,35.97347
2952.00000,35.13717
2954.00000,34.01486
2956.00000,33.32290
2958.00000,32.43292
2960.00000,33.20606
2962.00000,33.67971
2964.00000,35.83944
2966.00000,35.11402
2968.00000,35.67403
2970.00000,33.72401
2972.00000,33.98275
2974.00000,31.77141
2976.00000,30.73125
2978.00000,29.60276
2980.00000,31.05016
2982.00000,32.21557
2984.00000,33.58982
2986.00000,33.89039
2988.00000,33.47508
2990.00000,35.04990
2992.00000,35.89410
2994.00000,35.35789
2996.00000,33.48448
2998.00000,32.76592
3000.00000,33.89567
3002.00000,36.04440
3004.00000,38.15913
3006.00000,36.95929
3008.00000,36.02944
3010.00000,36.39965
3012.00000,35.69399
3014.00000,37.61972
3016.00000,39.27878
3018.00000,41.15113
3020.00000,42.21664
3022.00000,42.86209
3024.00000,43.56587
3026.00000,45.94946
3028.00000,45.51269
3030.00000,46.52993
3032.00000,44.93916
3034.00000,44.72400
3036.00000,45.48781
3038.00000,45.20651
3040.00000,45.46857
3042.00000,45.14384
3044.00000,43.82074
3046.00000,42.98351
3048.00000,40.94870
3050.00000,40.96074
3052.00000,40.23077
3054.00000,38.19694
3056.00000,35.34972
3058.00000,33.69636
3060.00000,36.38382
3062.00000,36.50548
3064.00000,38.39427
3066.00000,37.08875
3068.00000,33.61382
3070.00000,33.99847
3072.00000,32.34521
3074.00000,33.64081
3076.00000,34.43362
3078.00000,34.50500
3080.00000,35.81425
3082.00000,33.49147
3084.00000,31.97313
3086.00000,31.11358
3088.00000,31.21518
3090.00000,33.45211
3092.00000,33.17334
3094.00000,33.39851
3096.00000,34.13062
3098.00000,35.02526
3100.00000,33.57228
3102.00000,32.02172
3104.00000,31.82133
3106.00000,31.71562
3108.00000,31.12110
3110.00000,31.29147
3112.00000,29.19578
3114.00000,28.83763
3116.00000,27.66096
3118.00000,27.36068
3120.00000,27.81582
3122.00000,25.54728
3124.00000,24.72680
3126.00000,24.35024
3128.00000,24.06556
3130.00000,23.47338
3132.00000,23.87109
3134.00000,21.53942
3136.00000,22.61927
3138.00000,22.73502
3140.00000,23.68893
3142.00000,26.88760
3144.00000,24.99916
3146.00000,25.95118
3148.00000,24.50123
3150.00000,24.97895
3152.00000,25.85685
3154.00000,25.84523
3156.00000,25.81635
3158.00000,26.04851
3160.00000,24.07515
3162.00000,23.60131
3164.00000,23.87043
3166.00000,22.50438
3168.00000,23.46642
3170.00000,23.08148
3172.00000,24.83879
3174.00000,26.57189
3176.00000,24.67984
3178.00000,25.20117
3180.00000,23.15023
3182.00000,23.15709
3184.00000,21.62303
3186.00000,21.96751
3188.00000,22.14224
3190.00000,23.19461
3192.00000,22.58302
3194.00000,24.93740
3196.00000,24.93175
3198.00000,25.41179
3200.00000,25.69383
3202.00000,24.19567
3204.00000,24.55862
3206.00000,22.93412
3208.00000,25.02531
3210.00000,25.66903
3212.00000,27.19691
3214.00000,27.05378
3216.00000,27.28919
3218.00000,26.83582
3220.00000,26.17226
3222.00000,23.80405
3224.00000,24.95979
3226.00000,24.58904
3228.00000,24.48405
3230.00000,24.86375
3232.00000,24.82783
3234.00000,26.85933
3236.00000,27.92522
3238.00000,28.27704
3240.00000,28.23147
3242.00000,27.90108
3244.00000,27.03611
3246.00000,26.32109
3248.00000,25.86452
3250.00000,27.71762
3252.00000,25.20386
3254.00000,26.74123
3256.00000,26.29089
3258.00000,26.80682
3260.00000,27.48645
3262.00000,25.86719
3264.00000,26.70939
3266.00000,24.32903
3268.00000,23.98871
3270.00000,23.36552
3272.00000,23.39439
3274.00000,26.97752
3276.00000,28.33997
3278.00000,29.91392
3280.00000,30.32541
3282.00000,28.17008
3284.00000,27.79796
3286.00000,27.47570
3288.00000,29.30981
3290.00000,30.72537
3292.00000,30.96307
3294.00000,30.54960
3296.00000,28.47808
3298.00000,25.42002
3300.00000,25.98936
3302.00000,24.95705
3304.00000,26.31086
3306.00000,24.30860
3308.00000,25.24158
3310.00000,25.13056
3312.00000,25.89751
3314.00000,25.44813
3316.00000,25.17560
3318.00000,25.00381
3320.00000,27.56924
3322.00000,25.94686
3324.00000,27.54728
3326.00000,27.35452
3328.00000,25.68626
3330.00000,26.18242
3332.00000,25.80140
3334.00000,25.88081
3336.00000,24.71270
3338.00000,25.39106
3340.00000,27.05712
3342.00000,27.18205
3344.00000,26.77757
3346.00000,24.83676
3348.00000,26.73237
3350.00000,26.10456
3352.00000,26.49199
3354.00000,24.99897
3356.00000,24.08274
3358.00000,25.11474
3360.00000,25.26937
3362.00000,26.98480
3364.00000,28.24720
3366.00000,27.94818
3368.00000,25.98223
3370.00000,24.71180
3372.00000,25.08137
3374.00000,25.34377
3376.00000,25.65064
3378.00000,25.37786
3380.00000,27.21903
3382.00000,27.76335
3384.00000,30.16390
3386.00000,29.56835
3388.00000,28.94715
3390.00000,28.36992
3392.00000,28.22536
3394.00000,27.61983
3396.00000,28.16960
3398.00000,27.97349
3400.00000,27.85989
3402.00000,28.38309
3404.00000,28.32483
3406.00000,27.95502
3408.00000,27.89303
3410.00000,27.76463
3412.00000,28.83634
3414.00000,29.67054
3416.00000,28.26362
3418.00000,28.72208
3420.00000,28.25570
3422.00000,28.41418
3424.00000,28.72291
3426.00000,29.08102
3428.00000,29.37751
3430.00000,28.51027
3432.00000,26.69876
3434.00000,26.32603
3436.00000,27.49907
3438.00000,29.61941
3440.00000,31.86306
3442.00000,32.51943
3444.00000,31.08358
3446.00000,29.01108
3448.00000,27.66764
3450.00000,28.31083
3452.00000,29.00551
3454.00000,29.81300
3456.00000,29.78115
3458.00000,29.92519
3460.00000,29.50583
3462.00000,28.68215
3464.00000,28.70247
3466.00000,28.90124
3468.00000,30.06941
3470.00000,30.39392
3472.00000,30.57735
3474.00000,28.90744
3476.00000,27.33111
3478.00000,26.53183
3480.00000,26.61599
3482.00000,27.57622
3484.00000,28.09703
3486.00000,28.29776
3488.00000,28.36529
3490.00000,28.34658
3492.00000,28.32235
3494.00000,28.29811
3496.00000,28.27303
3498.00000,28.24738
3500.00000,28.22107
3502.00000,28.19421
3504.00000,28.16677
3506.00000,28.13875
3508.00000,28.11018
3510.00000,28.08110
3512.00000,28.05150
3514.00000,28.02142
3516.00000,27.99088
3518.00000,27.95985
3520.00000,27.92837
3522.00000,27.89644
3524.00000,27.86410
3526.00000,27.83136
3528.00000,27.79820
3530.00000,27.76469
3532.00000,27.73084
3534.00000,27.69666
3536.00000,27.66211
3538.00000,27.62721
3540.00000,27.59201
3542.00000,27.55654
3544.00000,27.52076
3546.00000,27.48479
3548.00000,27.44846
3550.00000,27.41193
3552.00000,27.37506
3554.00000,27.33807
3556.00000,27.30084
3558.00000,27.26344
3560.00000,27.22578
3562.00000,27.18790
3564.00000,27.14991
3566.00000,27.11175
3568.00000,27.07345
3570.00000,27.03496
3572.00000,26.99636
3574.00000,26.95763
3576.00000,26.91880
3578.00000,26.87984
3580.00000,26.84072
3582.00000,26.80151
3584.00000,26.76219
3586.00000,26.72278
3588.00000,26.68335
3590.00000,26.64383
3592.00000,26.60427
3594.00000,26.56463
3596.00000,26.52494
3598.00000,26.48521
3600.00000,26.44541
3602.00000,26.40558
3604.00000,26.36568
3606.00000,26.32577
3608.00000,26.28586
3610.00000,26.24591
3612.00000,26.20593
3614.00000,26.16593
3616.00000,26.12598
3618.00000,26.08605
3620.00000,26.04613
3622.00000,26.00620
3624.00000,25.96625
3626.00000,25.92634
3628.00000,25.88642
3630.00000,25.84658
3632.00000,25.80677
3634.00000,25.76701
3636.00000,25.72728
3638.00000,25.68755
3640.00000,25.64781
3642.00000,25.60808
3644.00000,25.56845
3646.00000,25.52884
3648.00000,25.48931
3650.00000,25.44976
3652.00000,25.41027
3654.00000,25.37081
3656.00000,25.33143
3658.00000,25.29208
3660.00000,25.25280
3662.00000,25.21359
3664.00000,25.17441
3666.00000,25.13528
3668.00000,25.09616
3670.00000,25.05713
3672.00000,25.01820
3674.00000,24.97929
3676.00000,24.94045
3678.00000,24.90165
3680.00000,24.86289
3682.00000,24.82422
3684.00000,24.78559
3686.00000,24.74701
3688.00000,24.70849
3690.00000,24.67003
3692.00000,24.63160
3694.00000,24.59325
3696.00000,24.55490
3698.00000,24.51665
3700.00000,24.47844
3702.00000,24.44033
3704.00000,24.40223
3706.00000,24.36420
3708.00000,24.32621
3710.00000,24.28831
3712.00000,24.25045
3714.00000,24.21259
3716.00000,24.17483
3718.00000,24.13704
3720.00000,24.09936
3722.00000,24.06173
3724.00000,24.02414
3726.00000,23.98658
3728.00000,23.94903
3730.00000,23.91153
3732.00000,23.87406
3734.00000,23.83667
3736.00000,23.79925
3738.00000,23.76190
3740.00000,23.72459
3742.00000,23.68732
3744.00000,23.65011
3746.00000,23.61291
3748.00000,23.57577
3750.00000,23.53862
3752.00000,23.50156
3754.00000,23.46449
3756.00000,23.42745
3758.00000,23.39040
3760.00000,23.35333
3762.00000,23.31634
3764.00000,23.27933
3766.00000,23.24237
3768.00000,23.20547
3770.00000,23.16855
3772.00000,23.13174
3774.00000,23.09485
3776.00000,23.05804
3778.00000,23.02123
3780.00000,22.98443
3782.00000,22.94762
3784.00000,22.91078
3786.00000,22.87400
3788.00000,22.83728
3790.00000,22.80056
3792.00000,22.76383
3794.00000,22.72710
3796.00000,22.69033
3798.00000,22.65364
3800.00000,22.61693
3802.00000,22.58020
3804.00000,22.54351
3806.00000,22.50677
3808.00000,22.47002
3810.00000,22.43329
3812.00000,22.39651
3814.00000,22.35980
3816.00000,22.32306
3818.00000,22.28637
3820.00000,22.24970
3822.00000,22.21306
3824.00000,22.17639
3826.00000,22.13965
3828.00000,22.10296
3830.00000,22.06624
3832.00000,22.02959
3834.00000,21.99286
3836.00000,21.95616
3838.00000,21.91941
3840.00000,21.88273
3842.00000,21.84603
3844.00000,21.80932
3846.00000,21.77258
3848.00000,21.73588
3850.00000,21.69912
3852.00000,21.66239
3854.00000,21.62566
3856.00000,21.58889
3858.00000,21.55219
3860.00000,21.51545
3862.00000,21.47873
3864.00000,21.44204
3866.00000,21.40532
3868.00000,21.36858
3870.00000,21.33189
3872.00000,21.29513
3874.00000,21.25845
3876.00000,21.22176
3878.00000,21.18503
3880.00000,21.14834
3882.00000,21.11160
3884.00000,21.07495
3886.00000,21.03827
3888.00000,21.00164
3890.00000,20.96498
3892.00000,20.92833
3894.00000,20.89177
3896.00000,20.85515
3898.00000,20.81855
3900.00000,20.78194
3902.00000,20.74543
3904.00000,20.70891
3906.00000,20.67245
3908.00000,20.63597
3910.00000,20.59953
3912.00000,20.56315
3914.00000,20.52675
3916.00000,20.49044
3918.00000,20.45411
3920.00000,20.41786
3922.00000,20.38162
3924.00000,20.34543
3926.00000,20.30925
3928.00000,20.27311
3930.00000,20.23698
3932.00000,20.20098
3934.00000,20.16499
3936.00000,20.12913
3938.00000,20.09324
3940.00000,20.05742
3942.00000,20.02164
3944.00000,19.98598
3946.00000,19.95039
3948.00000,19.91485
3950.00000,19.87936
3952.00000,19.84396
3954.00000,19.80872
3956.00000,19.77345
3958.00000,19.73836
3960.00000,19.70321
3962.00000,19.66825
3964.00000,19.63329
3966.00000,19.59849
3968.00000,19.56376
3970.00000,19.52917
3972.00000,19.49470
3974.00000,19.46032
3976.00000,19.42605
3978.00000,19.39190
3980.00000,19.35787
3982.00000,19.32399
3984.00000,19.29022
3986.00000,19.25660
3988.00000,19.22307
3990.00000,19.18980
3992.00000,19.15658
3994.00000,19.12359
3996.00000,19.09069
3998.00000,19.05797
4000.00000,19.02549
4002.00000,18.99312
4004.00000,18.96094
4006.00000,18.92886
4008.00000,18.89697
4010.00000,18.86529
4012.00000,18.83377
4014.00000,18.80250
4016.00000,18.77139
4018.00000,18.74055
4020.00000,18.70994
4022.00000,18.67953
4024.00000,18.64931
4026.00000,18.61939
4028.00000,18.58968
4030.00000,18.56026
4032.00000,18.53097
4034.00000,18.50197
4036.00000,18.47320
4038.00000,18.44477
4040.00000,18.41660
4042.00000,18.38865
4044.00000,18.36107
4046.00000,18.33374
4048.00000,18.30677
4050.00000,18.28001
4052.00000,18.25359
4054.00000,18.22744
4056.00000,18.20168
4058.00000,18.17622
4060.00000,18.15113
4062.00000,18.12638
4064.00000,18.10201
4066.00000,18.07792
4068.00000,18.05421
4070.00000,18.03085
4072.00000,18.00788
4074.00000,17.98533
4076.00000,17.96313
4078.00000,17.94136
4080.00000,17.91997
4082.00000,17.89908
4084.00000,17.87861
4086.00000,17.85860
4088.00000,17.83897
4090.00000,17.81980
4092.00000,17.80107
4094.00000,17.78284
4096.00000,17.76508
4098.00000,17.74782
4100.00000,17.73108
4102.00000,17.71484
4104.00000,17.69907
4106.00000,17.68377
4108.00000,17.66900
4110.00000,17.65478
4112.00000,17.64116
4114.00000,17.62812
4116.00000,17.61561
4118.00000,17.60365
4120.00000,17.59229
4122.00000,17.58151
4124.00000,17.57138
4126.00000,17.56187
4128.00000,17.55299
4130.00000,17.54475
4132.00000,17.53713
4134.00000,17.53019
4136.00000,17.52389
4138.00000,17.51830
4140.00000,17.51347
4142.00000,17.50929
4144.00000,17.50592
4146.00000,17.50306
4148.00000,17.50090
4150.00000,17.49918
4152.00000,17.49790
4154.00000,17.49699
4156.00000,17.49639
4158.00000,17.49609
4160.00000,17.49591
4162.00000,17.49583
4164.00000,17.49571
4166.00000,17.49566
4168.00000,17.49556
4170.00000,17.49548
4172.00000,17.49539
4174.00000,17.49529
4176.00000,17.49522
4178.00000,17.49513
4180.00000,17.49504
4182.00000,17.49494
4184.00000,17.49485
4186.00000,17.49474
4188.00000,17.49466
4190.00000,17.49455
4192.00000,17.49447
4194.00000,17.49442
4196.00000,17.49434
4198.00000,17.49428
4200.00000,17.49421
4202.00000,17.49411
4204.00000,17.49403
4206.00000,17.49393
4208.00000,17.49385
4210.00000,17.49376
4212.00000,17.49364
4214.00000,17.49354
4216.00000,17.49347
4218.00000,17.49340
4220.00000,17.49337
4222.00000,17.49326
4224.00000,17.49316
4226.00000,17.49303
4228.00000,17.49289
4230.00000,17.49281
4232.00000,17.49271
4234.00000,17.49264
4236.00000,17.49254
4238.00000,17.49245
4240.00000,17.49232
4242.00000,17.49226
4244.00000,17.49216
4246.00000,17.49210
4248.00000,17.49200
4250.00000,17.49192
4252.00000,17.49182
4254.00000,17.49175
4256.00000,17.49456
4258.00000,17.49667
4260.00000,17.49929
4262.00000,17.50000
4264.00000,17.50000
4266.00000,17.50000
4268.00000,17.50000
4270.00000,17.50000
4272.00000,17.50000
4274.00000,17.50000
4276.00000,17.50000
4278.00000,10.00000
