4000.00000,0.00000
3997.96119,0.01523
3995.92238,0.04801
3993.88358,0.08161
3991.84477,0.09102
3989.80596,0.09782
3987.76715,0.11355
3985.72835,0.13602
3983.68954,0.14591
3981.65073,0.14923
3979.61192,0.15347
3977.57312,0.18388
3975.53431,0.22197
3973.49550,0.25205
3971.45669,0.25695
3969.41789,0.25504
3967.37908,0.24977
3965.34027,0.26799
3963.30146,0.30247
3961.26265,0.33710
3959.22385,0.34790
3957.18504,0.35703
3955.14623,0.36634
3953.10742,0.37625
3951.06862,0.35988
3949.02981,0.33841
3946.99100,0.34552
3944.95219,0.38845
3942.91339,0.40641
3940.87458,0.39528
3938.83577,0.37377
3936.79696,0.37753
3934.75816,0.39265
3932.71935,0.41397
3930.68054,0.43118
3928.64173,0.45151
3926.60292,0.44921
3924.56412,0.43652
3922.52531,0.42107
3920.48650,0.41629
3918.44769,0.41176
3916.40889,0.41793
3914.37008,0.41390
3912.33127,0.40385
3910.29246,0.39563
3908.25366,0.40474
3906.21485,0.40293
3904.17604,0.40921
3902.13723,0.42430
3900.09843,0.44210
3898.05962,0.44908
3896.02081,0.44943
3893.98200,0.41155
3891.94319,0.37293
3889.90439,0.37245
3887.86558,0.38547
3885.82677,0.37553
3883.78796,0.38323
3881.74916,0.37248
3879.71035,0.36714
3877.67154,0.38718
3875.63273,0.41781
3873.59393,0.43939
3871.55512,0.42847
3869.51631,0.38324
3867.47750,0.35671
3865.43870,0.32414
3863.39989,0.31181
3861.36108,0.31798
3859.32227,0.33584
3857.28346,0.34486
3855.24466,0.33778
3853.20585,0.32810
3851.16704,0.34770
3849.12823,0.36245
3847.08943,0.37104
3845.05062,0.35496
3843.01181,0.33581
3840.97300,0.30783
3838.93420,0.28959
3836.89539,0.30280
3834.85658,0.33417
3832.81777,0.32673
3830.77897,0.31385
3828.74016,0.29581
3826.70135,0.27859
3824.66254,0.26341
3822.62373,0.25245
3820.58493,0.26499
3818.54612,0.29221
3816.50731,0.25907
3814.46850,0.23158
3812.42970,0.23734
3810.39089,0.25554
3808.35208,0.25405
3806.31327,0.26733
3804.27447,0.25788
3802.23566,0.21815
3800.19685,0.21400
3798.15804,0.24147
3796.11924,0.24209
3794.08043,0.23211
3792.04162,0.19563
3790.00281,0.15728
3787.96400,0.12980
3785.92520,0.14320
3783.88639,0.17864
3781.84758,0.19708
3779.80877,0.16621
3777.76997,0.15039
3775.73116,0.15680
3773.69235,0.15900
3771.65354,0.11534
3769.61474,0.06865
3767.57593,0.03883
3765.53712,0.03300
3763.49831,0.03406
3761.45951,0.02656
3759.42070,0.01253
3757.38189,0.02092
3755.34308,0.01435
3753.30427,0.00000
3751.26547,0.01526
3749.22666,0.08630
3747.18785,0.13443
3745.14904,0.13922
3743.11024,0.14114
3741.07143,0.14456
3739.03262,0.11884
3736.99381,0.10087
3734.95501,0.09414
3732.91620,0.09418
3730.87739,0.08490
3728.83858,0.07492
3726.79978,0.06147
3724.76097,0.06984
3722.72216,0.07558
3720.68335,0.06999
3718.64454,0.04971
3716.60574,0.03764
3714.56693,0.02133
3712.52812,0.01927
3710.48931,0.02950
3708.45051,0.04088
3706.41170,0.02995
3704.37289,0.01099
3702.33408,-0.00363
3700.29528,0.00809
3698.25647,-0.00105
3696.21766,0.00076
3694.17885,0.00029
3692.14004,0.00000
3690.10124,0.00949
3688.06243,0.03918
3686.02362,0.04985
3683.98481,0.05202
3681.94601,0.06429
3679.90720,0.09771
3677.86839,0.13860
3675.82958,0.21298
3673.79078,0.27917
3671.75197,0.29575
3669.71316,0.31513
3667.67435,0.37302
3665.63555,0.41910
3663.59674,0.46041
3661.55793,0.50888
3659.51912,0.56129
3657.48031,0.60015
3655.44151,0.65584
3653.40270,0.71522
3651.36389,0.76101
3649.32508,0.80499
3647.28628,0.86502
3645.24747,0.91148
3643.20866,0.93659
3641.16985,0.94985
3639.13105,0.98496
3637.09224,1.03664
3635.05343,1.08924
3633.01462,1.11760
3630.97582,1.12296
3628.93701,1.12772
3626.89820,1.16209
3624.85939,1.20136
3622.82058,1.24290
3620.78178,1.27556
3618.74297,1.31080
3616.70416,1.34121
3614.66535,1.37412
3612.62655,1.41758
3610.58774,1.45810
3608.54893,1.46000
3606.51012,1.46252
3604.47132,1.48957
3602.43251,1.53272
3600.39370,1.56121
3598.35489,1.57525
3596.31609,1.57161
3594.27728,1.58039
3592.23847,1.61743
3590.19966,1.67199
3588.16085,1.70098
3586.12205,1.71613
3584.08324,1.74163
3582.04443,1.78511
3580.00562,1.80733
3577.96682,1.79534
3575.92801,1.77046
3573.88920,1.78681
3571.85039,1.82985
3569.81159,1.86322
3567.77278,1.87944
3565.73397,1.90804
3563.69516,1.92741
3561.65636,1.93761
3559.61755,1.94984
3557.57874,1.96899
3555.53993,1.96905
3553.50112,1.96021
3551.46232,1.96897
3549.42351,2.01797
3547.38470,2.05558
3545.34589,2.05367
3543.30709,2.04167
3541.26828,2.06271
3539.22947,2.09058
3537.19066,2.11294
3535.15186,2.12891
3533.11305,2.14545
3531.07424,2.14747
3529.03543,2.15233
3526.99663,2.15652
3524.95782,2.16065
3522.91901,2.16896
3520.88020,2.19733
3518.84139,2.22126
3516.80259,2.23563
3514.76378,2.23336
3512.72497,2.22928
3510.68616,2.21955
3508.64736,2.22174
3506.60855,2.23332
3504.56974,2.24649
3502.53093,2.24789
3500.49213,2.24822
3498.45332,2.23460
3496.41451,2.21746
3494.37570,2.20834
3492.33690,2.23844
3490.29809,2.28452
3488.25928,2.30945
3486.22047,2.29952
3484.18166,2.30263
3482.14286,2.31908
3480.10405,2.32376
3478.06524,2.30789
3476.02643,2.30950
3473.98763,2.32133
3471.94882,2.32363
3469.91001,2.29910
3467.87120,2.28343
3465.83240,2.28315
3463.79359,2.29298
3461.75478,2.30290
3459.71597,2.32591
3457.67717,2.33800
3455.63836,2.34236
3453.59955,2.35289
3451.56074,2.38587
3449.52193,2.39825
3447.48313,2.37771
3445.44432,2.34847
3443.40551,2.34966
3441.36670,2.37633
3439.32790,2.41299
3437.28909,2.41874
3435.25028,2.41231
3433.21147,2.40911
3431.17267,2.40353
3429.13386,2.37847
3427.09505,2.37027
3425.05624,2.38344
3423.01744,2.39893
3420.97863,2.38423
3418.93982,2.36175
3416.90101,2.35810
3414.86220,2.39939
3412.82340,2.43122
3410.78459,2.41626
3408.74578,2.37314
3406.70697,2.36672
3404.66817,2.39493
3402.62936,2.41656
3400.59055,2.40945
3398.55174,2.41485
3396.51294,2.42540
3394.47413,2.42028
3392.43532,2.38670
3390.39651,2.37551
3388.35771,2.39631
3386.31890,2.41918
3384.28009,2.41474
3382.24128,2.42023
3380.20247,2.43109
3378.16367,2.43710
3376.12486,2.43888
3374.08605,2.45321
3372.04724,2.44868
3370.00844,2.44129
3367.96963,2.45052
3365.93082,2.47817
3363.89201,2.47880
3361.85321,2.45011
3359.81440,2.41647
3357.77559,2.41765
3355.73678,2.43156
3353.69798,2.44221
3351.65917,2.43857
3349.62036,2.44270
3347.58155,2.44044
3345.54274,2.43003
3343.50394,2.41689
3341.46513,2.42400
3339.42632,2.43613
3337.38751,2.45320
3335.34871,2.46243
3333.30990,2.48675
3331.27109,2.50582
3329.23228,2.50910
3327.19348,2.50218
3325.15467,2.50240
3323.11586,2.49694
3321.07705,2.50254
3319.03825,2.50798
3316.99944,2.51724
3314.96063,2.51491
3312.92182,2.50737
3310.88301,2.48473
3308.84421,2.46650
3306.80540,2.45715
3304.76659,2.45915
3302.72778,2.45920
3300.68898,2.47310
3298.65017,2.47413
3296.61136,2.46020
3294.57255,2.43384
3292.53375,2.42313
3290.49494,2.41977
3288.45613,2.43705
3286.41732,2.46155
3284.37852,2.47750
3282.33971,2.47222
3280.30090,2.46692
3278.26209,2.44644
3276.22328,2.43055
3274.18448,2.41965
3272.14567,2.42070
3270.10686,2.42201
3268.06805,2.42935
3266.02925,2.42267
3263.99044,2.41794
3261.95163,2.41702
3259.91282,2.42432
3257.87402,2.41749
3255.83521,2.41133
3253.79640,2.40579
3251.75759,2.41030
3249.71879,2.39521
3247.67998,2.36970
3245.64117,2.35139
3243.60236,2.35424
3241.56355,2.35603
3239.52475,2.37066
3237.48594,2.37384
3235.44713,2.36854
3233.40832,2.36056
3231.36952,2.36444
3229.33071,2.35693
3227.29190,2.34814
3225.25309,2.34117
3223.21429,2.34683
3221.17548,2.33512
3219.13667,2.32010
3217.09786,2.31581
3215.05906,2.33388
3213.02025,2.33542
3210.98144,2.32147
3208.94263,2.30594
3206.90382,2.31532
3204.86502,2.32672
3202.82621,2.33586
3200.78740,2.33039
3198.74859,2.32940
3196.70979,2.32073
3194.67098,2.31292
3192.63217,2.30112
3190.59336,2.30238
3188.55456,2.29514
3186.51575,2.28931
3184.47694,2.28882
3182.43813,2.30230
3180.39933,2.30277
3178.36052,2.29410
3176.32171,2.27321
3174.28290,2.27392
3172.24409,2.28266
3170.20529,2.28067
3168.16648,2.26156
3166.12767,2.26211
3164.08886,2.25917
3162.05006,2.25630
3160.01125,2.24532
3157.97244,2.23564
3155.93363,2.22669
3153.89483,2.22793
3151.85602,2.20865
3149.81721,2.19492
3147.77840,2.19567
3145.73960,2.20979
3143.70079,2.21066
3141.66198,2.20828
3139.62317,2.18755
3137.58436,2.16330
3135.54556,2.14165
3133.50675,2.13828
3131.46794,2.12571
3129.42913,2.11826
3127.39033,2.10981
3125.35152,2.11469
3123.31271,2.12396
3121.27390,2.13990
3119.23510,2.14591
3117.19629,2.15276
3115.15748,2.13971
3113.11867,2.12210
3111.07987,2.10224
3109.04106,2.09813
3107.00225,2.08926
3104.96344,2.08129
3102.92463,2.06665
3100.88583,2.06706
3098.84702,2.07130
3096.80821,2.08310
3094.76940,2.08150
3092.73060,2.08169
3090.69179,2.08213
3088.65298,2.08707
3086.61417,2.07141
3084.57537,2.05874
3082.53656,2.04935
3080.49775,2.05426
3078.45894,2.05803
3076.42013,2.06533
3074.38133,2.06284
3072.34252,2.07530
3070.30371,2.08515
3068.26490,2.09119
3066.22610,2.08316
3064.18729,2.08404
3062.14848,2.08511
3060.10967,2.09725
3058.07087,2.10994
3056.03206,2.12354
3053.99325,2.10746
3051.95444,2.08538
3049.91564,2.07358
3047.87683,2.08518
3045.83802,2.08037
3043.79921,2.06279
3041.76040,2.04203
3039.72160,2.05206
3037.68279,2.06265
3035.64398,2.06135
3033.60517,2.04282
3031.56637,2.03666
3029.52756,2.02812
3027.48875,2.02163
3025.44994,2.00114
3023.41114,1.97850
3021.37233,1.94682
3019.33352,1.93574
3017.29471,1.93584
3015.25591,1.94540
3013.21710,1.93980
3011.17829,1.93385
3009.13948,1.91120
3007.10067,1.87614
3005.06187,1.83302
3003.02306,1.82238
3000.98425,1.83002
2998.94544,1.84089
2996.90664,1.83226
2994.86783,1.83771
2992.82902,1.83809
2990.79021,1.83398
2988.75141,1.82376
2986.71260,1.82953
2984.67379,1.83913
2982.63498,1.86148
2980.59618,1.85977
2978.55737,1.85018
2976.51856,1.85256
2974.47975,1.87314
2972.44094,1.88116
2970.40214,1.88996
2968.36333,1.89235
2966.32452,1.90287
2964.28571,1.90190
2962.24691,1.91566
2960.20810,1.93298
2958.16929,1.95450
2956.13048,1.96907
2954.09168,1.98258
2952.05287,1.97873
2950.01406,1.97705
2947.97525,1.96554
2945.93645,1.96384
2943.89764,1.96908
2941.85883,1.99544
2939.82002,2.01748
2937.78121,2.04547
2935.74241,2.06302
2933.70360,2.08008
2931.66479,2.09700
2929.62598,2.12501
2927.58718,2.14223
2925.54837,2.16620
2923.50956,2.18390
2921.47075,2.20158
2919.43195,2.19620
2917.39314,2.17994
2915.35433,2.14514
2913.31552,2.11589
2911.27672,2.08821
2909.23791,2.08075
2907.19910,2.06904
2905.16029,2.06011
2903.12148,2.04616
2901.08268,2.04471
2899.04387,2.03564
2897.00506,2.02716
2894.96625,2.00581
2892.92745,1.99187
2890.88864,1.98014
2888.84983,1.98769
2886.81102,1.99083
2884.77222,2.00005
2882.73341,2.00383
2880.69460,2.02039
2878.65579,2.03590
2876.61699,2.05207
2874.57818,2.04707
2872.53937,2.05074
2870.50056,2.05929
2868.46175,2.07636
2866.42295,2.07741
2864.38414,2.08163
2862.34533,2.07872
2860.30652,2.08425
2858.26772,2.09340
2856.22891,2.12521
2854.19010,2.15440
2852.15129,2.18355
2850.11249,2.19099
2848.07368,2.19081
2846.03487,2.16949
2843.99606,2.14907
2841.95726,2.12678
2839.91845,2.11907
2837.87964,2.10292
2835.84083,2.09220
2833.80202,2.06947
2831.76322,2.05077
2829.72441,2.02352
2827.68560,2.01625
2825.64679,2.02100
2823.60799,2.03539
2821.56918,2.02955
2819.53037,2.02365
2817.49156,2.01017
2815.45276,2.00940
2813.41395,1.99760
2811.37514,1.99095
2809.33633,1.98451
2807.29753,1.99218
2805.25872,1.98904
2803.21991,1.99252
2801.18110,1.99406
2799.14229,2.00622
2797.10349,1.99689
2795.06468,1.97975
2793.02587,1.95545
2790.98706,1.95633
2788.94826,1.95910
2786.90945,1.96546
2784.87064,1.95934
2782.83183,1.96194
2780.79303,1.95593
2778.75422,1.95735
2776.71541,1.94785
2774.67660,1.94376
2772.63780,1.93444
2770.59899,1.93857
2768.56018,1.93570
2766.52137,1.93989
2764.48256,1.93281
2762.44376,1.93630
2760.40495,1.92844
2758.36614,1.91970
2756.32733,1.90041
2754.28853,1.89583
2752.24972,1.88469
2750.21091,1.88161
2748.17210,1.88072
2746.13330,1.89508
2744.09449,1.89114
2742.05568,1.89121
2740.01687,1.88481
2737.97807,1.88347
2735.93926,1.87041
2733.90045,1.86785
2731.86164,1.85378
2729.82283,1.84946
2727.78403,1.84146
2725.74522,1.84237
2723.70641,1.83710
2721.66760,1.84296
2719.62880,1.82858
2717.58999,1.81295
2715.55118,1.79566
2713.51237,1.80531
2711.47357,1.81062
2709.43476,1.80906
2707.39595,1.78563
2705.35714,1.77603
2703.31834,1.76762
2701.27953,1.77269
2699.24072,1.76100
2697.20191,1.74782
2695.16310,1.72566
2693.12430,1.71910
2691.08549,1.70516
2689.04668,1.70057
2687.00787,1.68749
2684.96907,1.68521
2682.93026,1.67621
2680.89145,1.68215
2678.85264,1.68357
2676.81384,1.69168
2674.77503,1.67875
2672.73622,1.67010
2670.69741,1.65916
2668.65861,1.66293
2666.61980,1.65997
2664.58099,1.66346
2662.54218,1.64950
2660.50337,1.64669
2658.46457,1.63728
2656.42576,1.63524
2654.38695,1.62050
2652.34814,1.61346
2650.30934,1.60656
2648.27053,1.62660
2646.23172,1.63522
2644.19291,1.63754
2642.15411,1.62617
2640.11530,1.62503
2638.07649,1.61223
2636.03768,1.61426
2633.99888,1.60938
2631.96007,1.60762
2629.92126,1.59413
2627.88245,1.59850
2625.84364,1.59105
2623.80484,1.58658
2621.76603,1.58246
2619.72722,1.59483
2617.68841,1.57865
2615.64961,1.56399
2613.61080,1.55932
2611.57199,1.57337
2609.53318,1.56583
2607.49438,1.56268
2605.45557,1.54885
2603.41676,1.54149
2601.37795,1.52491
2599.33915,1.52730
2597.30034,1.51890
2595.26153,1.51419
2593.22272,1.49865
2591.18391,1.49061
2589.14511,1.46978
2587.10630,1.46542
2585.06749,1.45954
2583.02868,1.46551
2580.98988,1.45484
2578.95107,1.45087
2576.91226,1.43869
2574.87345,1.44280
2572.83465,1.43917
2570.79584,1.43851
2568.75703,1.42075
2566.71822,1.42034
2564.67942,1.41280
2562.64061,1.40883
2560.60180,1.39407
2558.56299,1.39196
2556.52418,1.37743
2554.48538,1.37812
2552.44657,1.37044
2550.40776,1.36806
2548.36895,1.35553
2546.33015,1.35812
2544.29134,1.34850
2542.25253,1.35117
2540.21372,1.34746
2538.17492,1.34976
2536.13611,1.33462
2534.09730,1.32626
2532.05849,1.30233
2530.01969,1.29460
2527.98088,1.28822
2525.94207,1.29491
2523.90326,1.28614
2521.86445,1.28906
2519.82565,1.28654
2517.78684,1.29693
2515.74803,1.29367
2513.70922,1.30243
2511.67042,1.30117
2509.63161,1.30667
2507.59280,1.30232
2505.55399,1.31105
2503.51519,1.30493
2501.47638,1.30815
2499.43757,1.29812
2497.39876,1.29594
2495.35996,1.28385
2493.32115,1.28557
2491.28234,1.27528
2489.24353,1.27375
2487.20472,1.26345
2485.16592,1.26763
2483.12711,1.25369
2481.08830,1.24473
2479.04949,1.22743
2477.01069,1.22803
2474.97188,1.22185
2472.93307,1.22667
2470.89426,1.21550
2468.85546,1.21298
2466.81665,1.19990
2464.77784,1.19955
2462.73903,1.18754
2460.70022,1.19184
2458.66142,1.18388
2456.62261,1.17705
2454.58380,1.15918
2452.54499,1.15809
2450.50619,1.13764
2448.46738,1.12672
2446.42857,1.11286
2444.38976,1.11748
2442.35096,1.10850
2440.31215,1.10583
2438.27334,1.09073
2436.23453,1.09159
2434.19573,1.08033
2432.15692,1.07337
2430.11811,1.05156
2428.07930,1.05486
2426.04049,1.05440
2424.00169,1.05498
2421.96288,1.03572
2419.92407,1.03164
2417.88526,1.01773
2415.84646,1.01763
2413.80765,1.00621
2411.76884,1.00557
2409.73003,0.99096
2407.69123,0.98692
2405.65242,0.96957
2403.61361,0.96778
2401.57480,0.95700
2399.53600,0.95690
2397.49719,0.94243
2395.45838,0.94042
2393.41957,0.92569
2391.38076,0.92046
2389.34196,0.90089
2387.30315,0.89425
2385.26434,0.87392
2383.22553,0.86308
2381.18673,0.84022
2379.14792,0.83539
2377.10911,0.82362
2375.07030,0.82576
2373.03150,0.81649
2370.99269,0.82083
2368.95388,0.81243
2366.91507,0.81846
2364.87627,0.80370
2362.83746,0.78692
2360.79865,0.76973
2358.75984,0.79066
2356.72103,0.79291
2354.68223,0.78079
2352.64342,0.75763
2350.60461,0.76845
2348.56580,0.76725
2346.52700,0.75927
2344.48819,0.72526
2342.44938,0.70857
2340.41057,0.69770
2338.37177,0.70912
2336.33296,0.69962
2334.29415,0.70115
2332.25534,0.69953
2330.21654,0.71112
2328.17773,0.69978
2326.13892,0.69521
2324.10011,0.68082
2322.06130,0.68004
2320.02250,0.66473
2317.98369,0.66754
2315.94488,0.66340
2313.90607,0.66912
2311.86727,0.65788
2309.82846,0.65761
2307.78965,0.64223
2305.75084,0.64114
2303.71204,0.62985
2301.67323,0.62962
2299.63442,0.61558
2297.59561,0.61461
2295.55681,0.59762
2293.51800,0.59137
2291.47919,0.57540
2289.44038,0.57818
2287.40157,0.57116
2285.36277,0.57436
2283.32396,0.55721
2281.28515,0.54663
2279.24634,0.52585
2277.20754,0.52702
2275.16873,0.52079
2273.12992,0.52909
2271.09111,0.52501
2269.05231,0.53095
2267.01350,0.51637
2264.97469,0.51081
2262.93588,0.49878
2260.89708,0.50506
2258.85827,0.49361
2256.81946,0.48555
2254.78065,0.46341
2252.74184,0.46253
2250.70304,0.45713
2248.66423,0.46718
2246.62542,0.45845
2244.58661,0.45639
2242.54781,0.44098
2240.50900,0.43869
2238.47019,0.42824
2236.43138,0.43894
2234.39258,0.43323
2232.35377,0.43600
2230.31496,0.43044
2228.27615,0.43876
2226.23735,0.42862
2224.19854,0.43132
2222.15973,0.42385
2220.12092,0.42350
2218.08211,0.40373
2216.04331,0.40466
2214.00450,0.40475
2211.96569,0.41918
2209.92688,0.41456
2207.88808,0.41711
2205.84927,0.40548
2203.81046,0.40943
2201.77165,0.40592
2199.73285,0.41674
2197.69404,0.40830
2195.65523,0.40881
2193.61642,0.40007
2191.57762,0.40974
2189.53881,0.40901
2187.50000,0.42024
2185.46119,0.41888
2183.42238,0.42995
2181.38358,0.42396
2179.34477,0.43055
2177.30596,0.42245
2175.26715,0.42490
2173.22835,0.42279
2171.18954,0.43438
2169.15073,0.42616
2167.11192,0.43131
2165.07312,0.42347
2163.03431,0.42727
2160.99550,0.42176
2158.95669,0.43334
2156.91789,0.43503
2154.87908,0.45008
2152.84027,0.44635
2150.80146,0.45016
2148.76265,0.44360
2146.72385,0.45655
2144.68504,0.45905
2142.64623,0.47043
2140.60742,0.46413
2138.56862,0.46742
2136.52981,0.45989
2134.49100,0.47162
2132.45219,0.47374
2130.41339,0.48592
2128.37458,0.47676
2126.33577,0.47642
2124.29696,0.47020
2122.25816,0.48561
2120.21935,0.48868
2118.18054,0.50180
2116.14173,0.50022
2114.10292,0.50780
2112.06412,0.50159
2110.02531,0.51412
2107.98650,0.51480
2105.94769,0.52600
2103.90889,0.52518
2101.87008,0.53291
2099.83127,0.51959
2097.79246,0.52148
2095.75366,0.51674
2093.71485,0.53036
2091.67604,0.53389
2089.63723,0.54447
2087.59843,0.53251
2085.55962,0.53410
2083.52081,0.52757
2081.48200,0.53757
2079.44319,0.53547
2077.40439,0.54540
2075.36558,0.53988
2073.32677,0.54817
2071.28796,0.54311
2069.24916,0.55016
2067.21035,0.54521
2065.17154,0.55300
2063.13273,0.54189
2061.09393,0.54327
2059.05512,0.53518
2057.01631,0.54125
2054.97750,0.53456
2052.93870,0.54662
2050.89989,0.54436
2048.86108,0.54634
2046.82227,0.52950
2044.78346,0.53171
2042.74466,0.52391
2040.70585,0.52786
2038.66704,0.51980
2036.62823,0.52992
2034.58943,0.52663
2032.55062,0.53253
2030.51181,0.51949
2028.47300,0.52123
2026.43420,0.51252
2024.39539,0.51670
2022.35658,0.50707
2020.31777,0.51334
2018.27897,0.50328
2016.24016,0.50637
2014.20135,0.49666
2012.16254,0.49737
2010.12373,0.48118
2008.08493,0.48157
2006.04612,0.47206
2004.00731,0.48115
2001.96850,0.47662
1999.92970,0.47777
1997.89089,0.45884
1995.85208,0.45861
1993.81327,0.44914
1991.77447,0.45807
1989.73566,0.45317
1987.69685,0.45723
1985.65804,0.44685
1983.61924,0.45081
1981.58043,0.43777
1979.54162,0.43796
1977.50281,0.42633
1975.46400,0.43217
1973.42520,0.42388
1971.38639,0.42711
1969.34758,0.41264
1967.30877,0.41181
1965.26997,0.39949
1963.23116,0.40325
1961.19235,0.39439
1959.15354,0.40047
1957.11474,0.38782
1955.07593,0.38703
1953.03712,0.37578
1950.99831,0.38161
1948.95951,0.37008
1946.92070,0.37141
1944.88189,0.35994
1942.84308,0.36371
1940.80427,0.35483
1938.76547,0.35714
1936.72666,0.33859
1934.68785,0.33393
1932.64904,0.31958
1930.61024,0.32390
1928.57143,0.31557
1926.53262,0.31914
1924.49381,0.30152
1922.45501,0.29706
1920.41620,0.27535
1918.37739,0.26818
1916.33858,0.25897
1914.29978,0.26726
1912.26097,0.25232
1910.22216,0.24707
1908.18335,0.23261
1906.14454,0.23714
1904.10574,0.22545
1902.06693,0.22577
1900.02812,0.21146
1897.98931,0.21076
1895.95051,0.19595
1893.91170,0.20007
1891.87289,0.19021
1889.83408,0.19165
1887.79528,0.18046
1885.75647,0.18353
1883.71766,0.17144
1881.67885,0.17132
1879.64004,0.15417
1877.60124,0.15337
1875.56243,0.14390
1873.52362,0.14910
1871.48481,0.13069
1869.44601,0.12125
1867.40720,0.10639
1865.36839,0.11010
1863.32958,0.09815
1861.29078,0.10045
1859.25197,0.08877
1857.21316,0.08888
1855.17435,0.07574
1853.13555,0.08009
1851.09674,0.07119
1849.05793,0.07345
1847.01912,0.05799
1844.98031,0.05486
1842.94151,0.04592
1840.90270,0.05366
1838.86389,0.04414
1836.82508,0.04775
1834.78628,0.04008
1832.74747,0.04209
1830.70866,0.02726
1828.66985,0.03071
1826.63105,0.02366
1824.59224,0.02966
1822.55343,0.01972
1820.51462,0.01816
1818.47582,0.00907
1816.43701,0.02112
1814.39820,0.01780
1812.35939,0.01903
1810.32058,0.00645
1808.28178,0.00830
1806.24297,0.00000
1804.20416,0.00489
1802.16535,0.00048
1800.12655,0.01142
1798.08774,0.01952
1796.04893,0.04071
1794.01012,0.03932
1791.97132,0.04228
1789.93251,0.03336
1787.89370,0.03504
1785.85489,0.02746
1783.81609,0.03324
1781.77728,0.02250
1779.73847,0.02271
1777.69966,0.01544
1775.66085,0.01934
1773.62205,0.01009
1771.58324,0.01337
1769.54443,0.00517
1767.50562,0.00951
1765.46682,0.00679
1763.42801,0.00998
1761.38920,0.00268
1759.35039,0.00801
1757.31159,0.00773
1755.27278,0.01728
1753.23397,0.00528
1751.19516,0.00184
1749.15636,0.00000
1747.11755,0.01058
1745.07874,0.00740
1743.03993,0.01165
1741.00112,0.01100
1738.96232,0.03028
1736.92351,0.03791
1734.88470,0.04752
1732.84589,0.05184
1730.80709,0.06548
1728.76828,0.06954
1726.72947,0.08768
1724.69066,0.10361
1722.65186,0.13105
1720.61305,0.14276
1718.57424,0.15656
1716.53543,0.16573
1714.49663,0.19168
1712.45782,0.21769
1710.41901,0.25416
1708.38020,0.27858
1706.34139,0.31152
1704.30259,0.34045
1702.26378,0.37235
1700.22497,0.40129
1698.18616,0.44698
1696.14736,0.48458
1694.10855,0.53137
1692.06974,0.56798
1690.03093,0.61311
1687.99213,0.65992
1685.95332,0.71333
1683.91451,0.74175
1681.87570,0.77001
1679.83690,0.79853
1677.79809,0.84409
1675.75928,0.87962
1673.72047,0.92192
1671.68166,0.95147
1669.64286,0.97303
1667.60405,0.97762
1665.56524,0.99127
1663.52643,0.98101
1661.48763,0.96501
1659.44882,0.94423
1657.41001,0.95039
1655.37120,0.94769
1653.33240,0.93277
1651.29359,0.90431
1649.25478,0.89629
1647.21597,0.87803
1645.17717,0.87155
1643.13836,0.85796
1641.09955,0.85929
1639.06074,0.85144
1637.02193,0.84029
1634.98313,0.80576
1632.94432,0.78523
1630.90551,0.75330
1628.86670,0.73084
1626.82790,0.70201
1624.78909,0.68813
1622.75028,0.66662
1620.71147,0.65990
1618.67267,0.63487
1616.63386,0.61784
1614.59505,0.59778
1612.55624,0.59334
1610.51744,0.57871
1608.47863,0.57513
1606.43982,0.55838
1604.40101,0.55117
1602.36220,0.53804
1600.32340,0.54193
1598.28459,0.53585
1596.24578,0.54073
1594.20697,0.54383
1592.16817,0.56776
1590.12936,0.58347
1588.09055,0.60541
1586.05174,0.61364
1584.01294,0.63218
1581.97413,0.64474
1579.93532,0.67002
1577.89651,0.67682
1575.85771,0.68517
1573.81890,0.68784
1571.78009,0.70508
1569.74128,0.71370
1567.70247,0.73468
1565.66367,0.74426
1563.62486,0.76940
1561.58605,0.79538
1559.54724,0.82722
1557.50844,0.83163
1555.46963,0.83721
1553.43082,0.83083
1551.39201,0.83160
1549.35321,0.81107
1547.31440,0.79903
1545.27559,0.77789
1543.23678,0.77143
1541.19798,0.74167
1539.15917,0.71255
1537.12036,0.67543
1535.08155,0.65117
1533.04274,0.62123
1531.00394,0.61386
1528.96513,0.59786
1526.92632,0.59621
1524.88751,0.58818
1522.84871,0.59219
1520.80990,0.58183
1518.77109,0.58200
1516.73228,0.56839
1514.69348,0.56609
1512.65467,0.55184
1510.61586,0.55344
1508.57705,0.54495
1506.53825,0.54494
1504.49944,0.52973
1502.46063,0.52344
1500.42182,0.50305
1498.38301,0.49525
1496.34421,0.47973
1494.30540,0.48122
1492.26659,0.47175
1490.22778,0.47607
1488.18898,0.47197
1486.15017,0.48001
1484.11136,0.47669
1482.07255,0.48834
1480.03375,0.49391
1477.99494,0.51299
1475.95613,0.51839
1473.91732,0.52851
1471.87852,0.52308
1469.83971,0.53369
1467.80090,0.53679
1465.76209,0.55105
1463.72328,0.55491
1461.68448,0.57699
1459.64567,0.58670
1457.60686,0.59639
1455.56805,0.58776
1453.52925,0.59154
1451.49044,0.58127
1449.45163,0.58086
1447.41282,0.56679
1445.37402,0.56400
1443.33521,0.54517
1441.29640,0.54085
1439.25759,0.52619
1437.21879,0.51863
1435.17998,0.49565
1433.14117,0.48919
1431.10236,0.47359
1429.06355,0.47472
1427.02475,0.46288
1424.98594,0.46087
1422.94713,0.44597
1420.90832,0.44198
1418.86952,0.42270
1416.83071,0.42018
1414.79190,0.40492
1412.75309,0.39870
1410.71429,0.38029
1408.67548,0.38102
1406.63667,0.37097
1404.59786,0.37533
1402.55906,0.36887
1400.52025,0.37294
1398.48144,0.36095
1396.44263,0.36079
1394.40382,0.34847
1392.36502,0.35164
1390.32621,0.34179
1388.28740,0.34566
1386.24859,0.33975
1384.20979,0.34823
1382.17098,0.34012
1380.13217,0.34004
1378.09336,0.32474
1376.05456,0.32259
1374.01575,0.30648
1371.97694,0.30395
1369.93813,0.28952
1367.89933,0.29014
1365.86052,0.27666
1363.82171,0.27332
1361.78290,0.25543
1359.74409,0.24957
1357.70529,0.23016
1355.66648,0.23024
1353.62767,0.22629
1351.58886,0.23890
1349.55006,0.23707
1347.51125,0.24616
1345.47244,0.24208
1343.43363,0.25451
1341.39483,0.25695
1339.35602,0.27014
1337.31721,0.26726
1335.27840,0.27678
1333.23960,0.27239
1331.20079,0.27704
1329.16198,0.26567
1327.12317,0.26897
1325.08436,0.26012
1323.04556,0.26277
1321.00675,0.25312
1318.96794,0.25779
1316.92913,0.24737
1314.89033,0.24895
1312.85152,0.23446
1310.81271,0.22870
1308.77390,0.21267
1306.73510,0.21791
1304.69629,0.20974
1302.65748,0.20960
1300.61867,0.19762
1298.57987,0.20271
1296.54106,0.19388
1294.50225,0.19936
1292.46344,0.19652
1290.42463,0.20844
1288.38583,0.20691
1286.34702,0.21801
1284.30821,0.21613
1282.26940,0.22833
1280.23060,0.22746
1278.19179,0.23699
1276.15298,0.22991
1274.11417,0.23425
1272.07537,0.22731
1270.03656,0.23348
1267.99775,0.22533
1265.95894,0.23202
1263.92013,0.22708
1261.88133,0.23674
1259.84252,0.23680
1257.80371,0.25025
1255.76490,0.25133
1253.72610,0.26875
1251.68729,0.27480
1249.64848,0.29352
1247.60967,0.29962
1245.57087,0.31883
1243.53206,0.32525
1241.49325,0.34415
1239.45444,0.34809
1237.41564,0.36127
1235.37683,0.35736
1233.33802,0.36463
1231.29921,0.35481
1229.26040,0.35740
1227.22160,0.34652
1225.18279,0.34525
1223.14398,0.32604
1221.10517,0.32259
1219.06637,0.30845
1217.02756,0.30988
1214.98875,0.29779
1212.94994,0.30178
1210.91114,0.29498
1208.87233,0.30583
1206.83352,0.30393
1204.79471,0.31644
1202.75591,0.31623
1200.71710,0.33155
1198.67829,0.32865
1196.63948,0.33227
1194.60067,0.31778
1192.56187,0.31847
1190.52306,0.30321
1188.48425,0.30038
1186.44544,0.28234
1184.40664,0.28237
1182.36783,0.27082
1180.32902,0.27559
1178.29021,0.26568
1176.25141,0.27168
1174.21260,0.26147
1172.17379,0.26319
1170.13498,0.25074
1168.09618,0.25575
1166.05737,0.24240
1164.01856,0.24565
1161.97975,0.24255
1159.94094,0.25767
1157.90214,0.25384
1155.86333,0.26178
1153.82452,0.25063
1151.78571,0.25080
1149.74691,0.23436
1147.70810,0.23492
1145.66929,0.21780
1143.63048,0.21543
1141.59168,0.19794
1139.55287,0.19509
1137.51406,0.17940
1135.47525,0.18514
1133.43645,0.17501
1131.39764,0.18050
1129.35883,0.17212
1127.32002,0.17952
1125.28121,0.17002
1123.24241,0.17474
1121.20360,0.16186
1119.16479,0.16380
1117.12598,0.14792
1115.08718,0.14993
1113.04837,0.14104
1111.00956,0.14913
1108.97075,0.13621
1106.93195,0.13491
1104.89314,0.12157
1102.85433,0.13011
1100.81552,0.12098
1098.77672,0.12847
1096.73791,0.12469
1094.69910,0.13465
1092.66029,0.12749
1090.62148,0.13967
1088.58268,0.13957
1086.54387,0.15967
1084.50506,0.16652
1082.46625,0.18537
1080.42745,0.18376
1078.38864,0.19531
1076.34983,0.19046
1074.31102,0.20185
1072.27222,0.19406
1070.23341,0.20159
1068.19460,0.19556
1066.15579,0.20542
1064.11699,0.19892
1062.07818,0.20896
1060.03937,0.20082
1058.00056,0.20855
1055.96175,0.19874
1053.92295,0.20450
1051.88414,0.19577
1049.84533,0.20638
1047.80652,0.19911
1045.76772,0.20456
1043.72891,0.19227
1041.69010,0.19894
1039.65129,0.18678
1037.61249,0.19330
1035.57368,0.18964
1033.53487,0.20746
1031.49606,0.20616
1029.45726,0.21821
1027.41845,0.21173
1025.37964,0.22142
1023.34083,0.20879
1021.30202,0.20702
1019.26322,0.18591
1017.22441,0.18714
1015.18560,0.17260
1013.14679,0.17992
1011.10799,0.17566
1009.06918,0.18867
1007.03037,0.17313
1004.99156,0.16931
1002.95276,0.15040
1000.91395,0.15530
998.87514,0.14084
996.83633,0.14092
994.79753,0.12012
992.75872,0.12066
990.71991,0.10470
988.68110,0.10650
986.64229,0.08785
984.60349,0.08707
982.56468,0.06783
980.52587,0.07401
978.48706,0.06824
976.44826,0.08088
974.40945,0.07221
972.37064,0.08090
970.33183,0.06917
968.29303,0.08052
966.25422,0.07736
964.21541,0.08717
962.17660,0.07137
960.13780,0.07589
958.09899,0.06435
956.06018,0.07355
954.02137,0.06435
951.98256,0.07160
949.94376,0.05680
947.90495,0.06330
945.86614,0.05572
943.82733,0.06838
941.78853,0.05922
939.74972,0.06774
937.71091,0.05587
935.67210,0.06558
933.63330,0.05828
931.59449,0.06586
929.55568,0.05136
927.51687,0.05824
925.47807,0.04742
923.43926,0.06075
921.40045,0.05643
919.36164,0.06550
917.32283,0.05063
915.28403,0.05628
913.24522,0.04246
911.20641,0.05097
909.16760,0.04272
907.12880,0.05182
905.08999,0.03599
903.05118,0.03810
901.01237,0.02149
898.97357,0.02570
896.93476,0.01161
894.89595,0.01960
892.85714,0.00788
890.81834,0.01559
888.77953,0.00000
886.74072,0.00461
884.70191,-0.00134
882.66310,0.02001
880.62430,0.02753
878.58549,0.05510
876.54668,0.05896
874.50787,0.07634
872.46907,0.06546
870.43026,0.06529
868.39145,0.04544
866.35264,0.04952
864.31384,0.03124
862.27503,0.03201
860.23622,0.01278
858.19741,0.01569
856.15861,0.00073
854.11980,0.00823
852.08099,0.00126
850.04218,0.02063
848.00337,0.01629
845.96457,0.02470
843.92576,0.00907
841.88695,0.01423
839.84814,0.00511
837.80934,0.01806
835.77053,0.00523
833.73172,0.01066
831.69291,-0.00298
829.65411,0.00634
827.61530,-0.00385
825.57649,0.00739
823.53768,0.00188
821.49888,0.01564
819.46007,0.00186
817.42126,0.00768
815.38245,-0.00328
813.34364,0.00746
811.30484,-0.00102
809.26603,0.01245
807.22722,0.00554
805.18841,0.01483
803.14961,0.00000
801.11080,0.01061
799.07199,0.00534
797.03318,0.01804
794.99438,0.01143
792.95557,0.02511
790.91676,0.01057
788.87795,0.01288
786.83915,0.00072
784.80034,0.01670
782.76153,0.01225
780.72272,0.02671
778.68391,0.02142
776.64511,0.03592
774.60630,0.02595
772.56749,0.03529
770.52868,0.02550
768.48988,0.03689
766.45107,0.02968
764.41226,0.04718
762.37345,0.03895
760.33465,0.04535
758.29584,0.03119
756.25703,0.03969
754.21822,0.02654
752.17942,0.03667
750.14061,0.02884
748.10180,0.04508
746.06299,0.03614
744.02418,0.04378
741.98538,0.03040
739.94657,0.04652
737.90776,0.04579
735.86895,0.05770
733.83015,0.04082
731.79134,0.05205
729.75253,0.04813
727.71372,0.06548
725.67492,0.05675
723.63611,0.06533
721.59730,0.04857
719.55849,0.05883
717.51969,0.05109
715.48088,0.06501
713.44207,0.05860
711.40326,0.08129
709.36445,0.07932
707.32565,0.08965
705.28684,0.07229
703.24803,0.08431
701.20922,0.07921
699.17042,0.09252
697.13161,0.07422
695.09280,0.08368
693.05399,0.08000
691.01519,0.10275
688.97638,0.09283
686.93757,0.09427
684.89876,0.07035
682.85996,0.08201
680.82115,0.07463
678.78234,0.08941
676.74353,0.07880
674.70472,0.09477
672.66592,0.08799
670.62711,0.10409
668.58830,0.09278
666.54949,0.11034
664.51069,0.10560
662.47188,0.12078
660.43307,0.10208
658.39426,0.10977
656.35546,0.10133
654.31665,0.12567
652.27784,0.12202
650.23903,0.13737
648.20022,0.12306
646.16142,0.13758
644.12261,0.12237
642.08380,0.12900
640.04499,0.11278
638.00619,0.13441
635.96738,0.12892
633.92857,0.14241
631.88976,0.12222
629.85096,0.13716
627.81215,0.13013
625.77334,0.14549
623.73453,0.12725
621.69573,0.14292
619.65692,0.13576
617.61811,0.16067
615.57930,0.14845
613.54049,0.15481
611.50169,0.12863
609.46288,0.14293
607.42407,0.13044
605.38526,0.14702
603.34646,0.13409
601.30765,0.15623
599.26884,0.14114
597.23003,0.15108
595.19123,0.12850
593.15242,0.14310
591.11361,0.12608
589.07480,0.14013
587.03600,0.11798
584.99719,0.13563
582.95838,0.12768
580.91957,0.15683
578.88076,0.14526
576.84196,0.16110
574.80315,0.14222
572.76434,0.16036
570.72553,0.14055
568.68673,0.16296
566.64792,0.14958
564.60911,0.16264
562.57030,0.13101
560.53150,0.14310
558.49269,0.11987
556.45388,0.13977
554.41507,0.12485
552.37627,0.14660
550.33746,0.12516
548.29865,0.15022
546.25984,0.13656
544.22103,0.15841
542.18223,0.13575
540.14342,0.15775
538.10461,0.13549
536.06580,0.15139
534.02700,0.11923
531.98819,0.14231
529.94938,0.12829
527.91057,0.14915
525.87177,0.11334
523.83296,0.13099
521.79415,0.10939
519.75534,0.14236
517.71654,0.13001
515.67773,0.15973
513.63892,0.13124
511.60011,0.15050
509.56130,0.11457
507.52250,0.13102
505.48369,0.10271
503.44488,0.13565
501.40607,0.11478
499.36727,0.14690
497.32846,0.12113
495.28965,0.14668
493.25084,0.11066
491.21204,0.13867
489.17323,0.11867
487.13442,0.15944
485.09561,0.12818
483.05681,0.15573
481.01800,0.12414
478.97919,0.15632
476.94038,0.11524
474.90157,0.14138
472.86277,0.10775
470.82396,0.15153
468.78515,0.12174
466.74634,0.16109
464.70754,0.11837
462.66873,0.14586
460.62992,0.09210
458.59111,0.12717
456.55231,0.08370
454.51350,0.12268
452.47469,0.07244
450.43588,0.11012
448.39708,0.05952
446.35827,0.10799
444.31946,0.06537
442.28065,0.11645
440.24184,0.07304
438.20304,0.13492
436.16423,0.08833
434.12542,0.13815
432.08661,0.06786
430.04781,0.11566
428.00900,0.04815
425.97019,0.11046
423.93138,0.05395
421.89258,0.13506
419.85377,0.06536
417.81496,0.11827
415.77615,0.03056
413.73735,0.12508
411.69854,0.06318
409.65973,0.15293
407.62092,0.03736
405.58211,0.10951
403.54331,0.00000
401.50450,0.14563
399.46569,0.07118
397.42688,0.18957
395.38808,0.00431
393.34927,0.14540
391.31046,-0.00288
389.27165,0.21245
387.23285,0.03576
385.19404,0.31194
383.15523,0.02764
381.11642,0.43309
379.07762,-0.00422
377.03881,0.75606
375.00000,0.00000
