4000.00000,0.00000
3997.96119,0.01449
3995.92238,0.04048
3993.88358,0.06069
3991.84477,0.07468
3989.80596,0.08514
3987.76715,0.09827
3985.72835,0.12164
3983.68954,0.14324
3981.65073,0.14754
3979.61192,0.12781
3977.57312,0.12111
3975.53431,0.14261
3973.49550,0.17163
3971.45669,0.18530
3969.41789,0.19521
3967.37908,0.20058
3965.34027,0.21086
3963.30146,0.22480
3961.26265,0.23820
3959.22385,0.23569
3957.18504,0.23245
3955.14623,0.23780
3953.10742,0.25127
3951.06862,0.25926
3949.02981,0.27113
3946.99100,0.27866
3944.95219,0.27515
3942.91339,0.26447
3940.87458,0.27141
3938.83577,0.27903
3936.79696,0.28159
3934.75816,0.27897
3932.71935,0.28378
3930.68054,0.29231
3928.64173,0.29835
3926.60292,0.28828
3924.56412,0.28176
3922.52531,0.27208
3920.48650,0.25071
3918.44769,0.22652
3916.40889,0.23433
3914.37008,0.26163
3912.33127,0.27811
3910.29246,0.27082
3908.25366,0.26790
3906.21485,0.26782
3904.17604,0.26393
3902.13723,0.24836
3900.09843,0.24144
3898.05962,0.25070
3896.02081,0.26615
3893.98200,0.25390
3891.94319,0.23911
3889.90439,0.25046
3887.86558,0.25991
3885.82677,0.23348
3883.78796,0.21266
3881.74916,0.19605
3879.71035,0.19209
3877.67154,0.20503
3875.63273,0.22345
3873.59393,0.23032
3871.55512,0.22159
3869.51631,0.21060
3867.47750,0.21721
3865.43870,0.21495
3863.39989,0.21376
3861.36108,0.21059
3859.32227,0.21208
3857.28346,0.21547
3855.24466,0.22093
3853.20585,0.23264
3851.16704,0.24819
3849.12823,0.23794
3847.08943,0.22107
3845.05062,0.21225
3843.01181,0.21697
3840.97300,0.20383
3838.93420,0.18054
3836.89539,0.17195
3834.85658,0.18136
3832.81777,0.18276
3830.77897,0.18754
3828.74016,0.18947
3826.70135,0.19218
3824.66254,0.18364
3822.62373,0.16074
3820.58493,0.15244
3818.54612,0.16775
3816.50731,0.16429
3814.46850,0.16023
3812.42970,0.14848
3810.39089,0.12613
3808.35208,0.09215
3806.31327,0.08278
3804.27447,0.09220
3802.23566,0.11063
3800.19685,0.13203
3798.15804,0.13046
3796.11924,0.10572
3794.08043,0.10204
3792.04162,0.10283
3790.00281,0.10183
3787.96400,0.09785
3785.92520,0.10474
3783.88639,0.11026
3781.84758,0.10494
3779.80877,0.08793
3777.76997,0.08132
3775.73116,0.06404
3773.69235,0.03806
3771.65354,0.01063
3769.61474,0.00254
3767.57593,0.00712
3765.53712,0.02183
3763.49831,0.02744
3761.45951,0.01554
3759.42070,0.00000
3757.38189,0.00763
3755.34308,0.01440
3753.30427,0.00994
3751.26547,0.00755
3749.22666,0.03162
3747.18785,0.05138
3745.14904,0.06063
3743.11024,0.06741
3741.07143,0.06385
3739.03262,0.04944
3736.99381,0.05674
3734.95501,0.07464
3732.91620,0.08683
3730.87739,0.08579
3728.83858,0.07853
3726.79978,0.06571
3724.76097,0.06080
3722.72216,0.05710
3720.68335,0.05458
3718.64454,0.05104
3716.60574,0.04723
3714.56693,0.02507
3712.52812,0.00200
3710.48931,0.00000
3708.45051,0.01217
3706.41170,0.01470
3704.37289,0.00773
3702.33408,0.00148
3700.29528,0.00999
3698.25647,0.01136
3696.21766,0.00748
3694.17885,0.00711
3692.14004,0.01396
3690.10124,0.03527
3688.06243,0.05119
3686.02362,0.04970
3683.98481,0.04882
3681.94601,0.05117
3679.90720,0.06349
3677.86839,0.09283
3675.82958,0.16450
3673.79078,0.24030
3671.75197,0.27403
3669.71316,0.28992
3667.67435,0.31685
3665.63555,0.33593
3663.59674,0.36036
3661.55793,0.40181
3659.51912,0.45086
3657.48031,0.48964
3655.44151,0.53036
3653.40270,0.55981
3651.36389,0.57222
3649.32508,0.58969
3647.28628,0.63489
3645.24747,0.68554
3643.20866,0.72463
3641.16985,0.75484
3639.13105,0.79003
3637.09224,0.82372
3635.05343,0.85746
3633.01462,0.88783
3630.97582,0.90805
3628.93701,0.92113
3626.89820,0.94993
3624.85939,0.98024
3622.82058,1.00534
3620.78178,1.02855
3618.74297,1.06303
3616.70416,1.09772
3614.66535,1.12133
3612.62655,1.12804
3610.58774,1.13237
3608.54893,1.14929
3606.51012,1.18212
3604.47132,1.20588
3602.43251,1.21966
3600.39370,1.23240
3598.35489,1.25366
3596.31609,1.27373
3594.27728,1.29652
3592.23847,1.31282
3590.19966,1.31601
3588.16085,1.32610
3586.12205,1.36592
3584.08324,1.40273
3582.04443,1.42527
3580.00562,1.44142
3577.96682,1.45405
3575.92801,1.45714
3573.88920,1.46281
3571.85039,1.47058
3569.81159,1.47938
3567.77278,1.48310
3565.73397,1.49220
3563.69516,1.50582
3561.65636,1.52628
3559.61755,1.54712
3557.57874,1.56445
3555.53993,1.57109
3553.50112,1.57831
3551.46232,1.58497
3549.42351,1.59061
3547.38470,1.59650
3545.34589,1.61075
3543.30709,1.62356
3541.26828,1.63854
3539.22947,1.64811
3537.19066,1.65249
3535.15186,1.65629
3533.11305,1.66191
3531.07424,1.65664
3529.03543,1.65501
3526.99663,1.66283
3524.95782,1.67882
3522.91901,1.69373
3520.88020,1.71015
3518.84139,1.73339
3516.80259,1.76457
3514.76378,1.77167
3512.72497,1.76451
3510.68616,1.76808
3508.64736,1.77664
3506.60855,1.76503
3504.56974,1.75200
3502.53093,1.76113
3500.49213,1.78732
3498.45332,1.79862
3496.41451,1.80282
3494.37570,1.80272
3492.33690,1.79630
3490.29809,1.79057
3488.25928,1.80670
3486.22047,1.83330
3484.18166,1.84728
3482.14286,1.83056
3480.10405,1.81760
3478.06524,1.82928
3476.02643,1.84587
3473.98763,1.83971
3471.94882,1.83170
3469.91001,1.83246
3467.87120,1.83885
3465.83240,1.83976
3463.79359,1.84011
3461.75478,1.84160
3459.71597,1.85409
3457.67717,1.86341
3455.63836,1.86461
3453.59955,1.85871
3451.56074,1.85980
3449.52193,1.86026
3447.48313,1.86299
3445.44432,1.87181
3443.40551,1.88679
3441.36670,1.89617
3439.32790,1.90393
3437.28909,1.90012
3435.25028,1.89395
3433.21147,1.88811
3431.17267,1.88240
3429.13386,1.88171
3427.09505,1.89930
3425.05624,1.91151
3423.01744,1.91668
3420.97863,1.92004
3418.93982,1.92692
3416.90101,1.92250
3414.86220,1.90778
3412.82340,1.89304
3410.78459,1.89606
3408.74578,1.90385
3406.70697,1.90974
3404.66817,1.90342
3402.62936,1.90189
3400.59055,1.91139
3398.55174,1.91568
3396.51294,1.89866
3394.47413,1.89017
3392.43532,1.89232
3390.39651,1.89300
3388.35771,1.89015
3386.31890,1.89814
3384.28009,1.90744
3382.24128,1.91481
3380.20247,1.91300
3378.16367,1.91686
3376.12486,1.92025
3374.08605,1.91781
3372.04724,1.91078
3370.00844,1.91293
3367.96963,1.91038
3365.93082,1.90677
3363.89201,1.90788
3361.85321,1.91875
3359.81440,1.92757
3357.77559,1.93621
3355.73678,1.94003
3353.69798,1.94063
3351.65917,1.93512
3349.62036,1.93739
3347.58155,1.94136
3345.54274,1.95654
3343.50394,1.96747
3341.46513,1.96058
3339.42632,1.94487
3337.38751,1.94107
3335.34871,1.94111
3333.30990,1.95478
3331.27109,1.96951
3329.23228,1.96946
3327.19348,1.95432
3325.15467,1.94935
3323.11586,1.95099
3321.07705,1.96016
3319.03825,1.96487
3316.99944,1.96585
3314.96063,1.96448
3312.92182,1.96650
3310.88301,1.96799
3308.84421,1.97938
3306.80540,1.98108
3304.76659,1.97603
3302.72778,1.97300
3300.68898,1.97100
3298.65017,1.96102
3296.61136,1.96106
3294.57255,1.96473
3292.53375,1.97245
3290.49494,1.97629
3288.45613,1.97784
3286.41732,1.97034
3284.37852,1.96294
3282.33971,1.95215
3280.30090,1.94167
3278.26209,1.93452
3276.22328,1.94150
3274.18448,1.93804
3272.14567,1.93570
3270.10686,1.94666
3268.06805,1.95650
3266.02925,1.94278
3263.99044,1.92487
3261.95163,1.91259
3259.91282,1.91872
3257.87402,1.93081
3255.83521,1.94016
3253.79640,1.93176
3251.75759,1.91278
3249.71879,1.88924
3247.67998,1.88520
3245.64117,1.89032
3243.60236,1.89289
3241.56355,1.88576
3239.52475,1.88018
3237.48594,1.87236
3235.44713,1.87228
3233.40832,1.87436
3231.36952,1.88282
3229.33071,1.88455
3227.29190,1.87854
3225.25309,1.86561
3223.21429,1.86342
3221.17548,1.86455
3219.13667,1.86611
3217.09786,1.85995
3215.05906,1.86012
3213.02025,1.86230
3210.98144,1.86518
3208.94263,1.85919
3206.90382,1.85794
3204.86502,1.85678
3202.82621,1.85423
3200.78740,1.84643
3198.74859,1.84689
3196.70979,1.84540
3194.67098,1.84591
3192.63217,1.84249
3190.59336,1.84012
3188.55456,1.83155
3186.51575,1.82698
3184.47694,1.82324
3182.43813,1.82120
3180.39933,1.81613
3178.36052,1.82028
3176.32171,1.81990
3174.28290,1.81846
3172.24409,1.81378
3170.20529,1.81062
3168.16648,1.79384
3166.12767,1.77604
3164.08886,1.76717
3162.05006,1.77319
3160.01125,1.77691
3157.97244,1.78391
3155.93363,1.78528
3153.89483,1.78132
3151.85602,1.77033
3149.81721,1.76536
3147.77840,1.75878
3145.73960,1.75997
3143.70079,1.75673
3141.66198,1.75103
3139.62317,1.74862
3137.58436,1.76004
3135.54556,1.75906
3133.50675,1.74527
3131.46794,1.72855
3129.42913,1.72308
3127.39033,1.71214
3125.35152,1.69783
3123.31271,1.67888
3121.27390,1.67014
3119.23510,1.66971
3117.19629,1.68190
3115.15748,1.68325
3113.11867,1.67240
3111.07987,1.65528
3109.04106,1.64937
3107.00225,1.64763
3104.96344,1.65491
3102.92463,1.65746
3100.88583,1.65912
3098.84702,1.65903
3096.80821,1.66277
3094.76940,1.65787
3092.73060,1.65433
3090.69179,1.64632
3088.65298,1.64383
3086.61417,1.64557
3084.57537,1.65745
3082.53656,1.66344
3080.49775,1.66327
3078.45894,1.65705
3076.42013,1.66139
3074.38133,1.67183
3072.34252,1.68673
3070.30371,1.68306
3068.26490,1.67683
3066.22610,1.68076
3064.18729,1.69718
3062.14848,1.70429
3060.10967,1.70771
3058.07087,1.70383
3056.03206,1.69870
3053.99325,1.69028
3051.95444,1.69166
3049.91564,1.69145
3047.87683,1.69308
3045.83802,1.68705
3043.79921,1.67990
3041.76040,1.66575
3039.72160,1.65831
3037.68279,1.65695
3035.64398,1.66296
3033.60517,1.65652
3031.56637,1.64681
3029.52756,1.63799
3027.48875,1.63919
3025.44994,1.63409
3023.41114,1.62633
3021.37233,1.61027
3019.33352,1.59519
3017.29471,1.57554
3015.25591,1.56421
3013.21710,1.55675
3011.17829,1.55868
3009.13948,1.55399
3007.10067,1.54953
3005.06187,1.54209
3003.02306,1.53582
3000.98425,1.52339
2998.94544,1.51431
2996.90664,1.49635
2994.86783,1.48164
2992.82902,1.47627
2990.79021,1.48872
2988.75141,1.49440
2986.71260,1.49443
2984.67379,1.48989
2982.63498,1.49629
2980.59618,1.50875
2978.55737,1.52631
2976.51856,1.53433
2974.47975,1.54566
2972.44094,1.55367
2970.40214,1.56356
2968.36333,1.57083
2966.32452,1.58168
2964.28571,1.58892
2962.24691,1.60251
2960.20810,1.60899
2958.16929,1.61067
2956.13048,1.60341
2954.09168,1.60441
2952.05287,1.60937
2950.01406,1.61581
2947.97525,1.61772
2945.93645,1.63440
2943.89764,1.65114
2941.85883,1.66449
2939.82002,1.67142
2937.78121,1.68775
2935.74241,1.70921
2933.70360,1.73690
2931.66479,1.75590
2929.62598,1.77751
2927.58718,1.79600
2925.54837,1.82146
2923.50956,1.84334
2921.47075,1.85142
2919.43195,1.83196
2917.39314,1.80591
2915.35433,1.77359
2913.31552,1.74690
2911.27672,1.72255
2909.23791,1.71128
2907.19910,1.69969
2905.16029,1.69036
2903.12148,1.67503
2901.08268,1.66535
2899.04387,1.65286
2897.00506,1.64519
2894.96625,1.63933
2892.92745,1.64619
2890.88864,1.64547
2888.84983,1.64133
2886.81102,1.63408
2884.77222,1.63389
2882.73341,1.63025
2880.69460,1.63774
2878.65579,1.65109
2876.61699,1.67040
2874.57818,1.68295
2872.53937,1.69809
2870.50056,1.70484
2868.46175,1.71429
2866.42295,1.72127
2864.38414,1.73130
2862.34533,1.73267
2860.30652,1.73462
2858.26772,1.73828
2856.22891,1.75992
2854.19010,1.78421
2852.15129,1.81379
2850.11249,1.82531
2848.07368,1.81197
2846.03487,1.78096
2843.99606,1.76379
2841.95726,1.74992
2839.91845,1.74176
2837.87964,1.72912
2835.84083,1.72077
2833.80202,1.70717
2831.76322,1.69773
2829.72441,1.68195
2827.68560,1.67435
2825.64679,1.67059
2823.60799,1.67342
2821.56918,1.66408
2819.53037,1.65407
2817.49156,1.64180
2815.45276,1.64084
2813.41395,1.63953
2811.37514,1.64381
2809.33633,1.64203
2807.29753,1.64072
2805.25872,1.62948
2803.21991,1.62687
2801.18110,1.62554
2799.14229,1.62799
2797.10349,1.62465
2795.06468,1.62753
2793.02587,1.62709
2790.98706,1.63367
2788.94826,1.63190
2786.90945,1.62857
2784.87064,1.61874
2782.83183,1.61413
2780.79303,1.60613
2778.75422,1.61272
2776.71541,1.62012
2774.67660,1.62615
2772.63780,1.62014
2770.59899,1.61726
2768.56018,1.60805
2766.52137,1.60177
2764.48256,1.59071
2762.44376,1.58923
2760.40495,1.58574
2758.36614,1.58665
2756.32733,1.58029
2754.28853,1.57915
2752.24972,1.57393
2750.21091,1.57517
2748.17210,1.57341
2746.13330,1.57671
2744.09449,1.56901
2742.05568,1.56325
2740.01687,1.55765
2737.97807,1.56486
2735.93926,1.56319
2733.90045,1.55491
2731.86164,1.53836
2729.82283,1.53785
2727.78403,1.54140
2725.74522,1.54745
2723.70641,1.53946
2721.66760,1.53363
2719.62880,1.52292
2717.58999,1.52099
2715.55118,1.51698
2713.51237,1.51527
2711.47357,1.50267
2709.43476,1.49584
2707.39595,1.48327
2705.35714,1.47651
2703.31834,1.46986
2701.27953,1.47425
2699.24072,1.47029
2697.20191,1.46395
2695.16310,1.44889
2693.12430,1.44480
2691.08549,1.43599
2689.04668,1.42577
2687.00787,1.40778
2684.96907,1.40390
2682.93026,1.40157
2680.89145,1.40405
2678.85264,1.39689
2676.81384,1.39370
2674.77503,1.38257
2672.73622,1.38011
2670.69741,1.37499
2668.65861,1.36984
2666.61980,1.35505
2664.58099,1.35285
2662.54218,1.35076
2660.50337,1.35554
2658.46457,1.35257
2656.42576,1.34816
2654.38695,1.33515
2652.34814,1.33690
2650.30934,1.33731
2648.27053,1.33941
2646.23172,1.33172
2644.19291,1.33061
2642.15411,1.32609
2640.11530,1.33068
2638.07649,1.32889
2636.03768,1.32770
2633.99888,1.31690
2631.96007,1.31716
2629.92126,1.31532
2627.88245,1.31485
2625.84364,1.30674
2623.80484,1.30827
2621.76603,1.30132
2619.72722,1.29600
2617.68841,1.28662
2615.64961,1.28843
2613.61080,1.28607
2611.57199,1.29142
2609.53318,1.28854
2607.49438,1.28506
2605.45557,1.27004
2603.41676,1.26391
2601.37795,1.25914
2599.33915,1.26153
2597.30034,1.24996
2595.26153,1.24396
2593.22272,1.23710
2591.18391,1.23768
2589.14511,1.22919
2587.10630,1.22429
2585.06749,1.21164
2583.02868,1.20633
2580.98988,1.19735
2578.95107,1.19766
2576.91226,1.18899
2574.87345,1.18282
2572.83465,1.17371
2570.79584,1.17783
2568.75703,1.17122
2566.71822,1.16375
2564.67942,1.15247
2562.64061,1.15239
2560.60180,1.14440
2558.56299,1.14314
2556.52418,1.13724
2554.48538,1.13703
2552.44657,1.12762
2550.40776,1.12597
2548.36895,1.11973
2546.33015,1.11906
2544.29134,1.11050
2542.25253,1.10997
2540.21372,1.10371
2538.17492,1.10382
2536.13611,1.09570
2534.09730,1.09347
2532.05849,1.08800
2530.01969,1.09108
2527.98088,1.08109
2525.94207,1.07368
2523.90326,1.06300
2521.86445,1.06607
2519.82565,1.06366
2517.78684,1.06459
2515.74803,1.05519
2513.70922,1.05196
2511.67042,1.04695
2509.63161,1.05403
2507.59280,1.05270
2505.55399,1.05381
2503.51519,1.04393
2501.47638,1.04212
2499.43757,1.03906
2497.39876,1.04194
2495.35996,1.03214
2493.32115,1.03116
2491.28234,1.02514
2489.24353,1.02053
2487.20472,1.00420
2485.16592,0.99887
2483.12711,0.99255
2481.08830,0.99730
2479.04949,0.99320
2477.01069,0.99207
2474.97188,0.98390
2472.93307,0.98462
2470.89426,0.97770
2468.85546,0.97662
2466.81665,0.96630
2464.77784,0.96225
2462.73903,0.95119
2460.70022,0.94816
2458.66142,0.93895
2456.62261,0.93806
2454.58380,0.92625
2452.54499,0.91647
2450.50619,0.90011
2448.46738,0.89967
2446.42857,0.89664
2444.38976,0.89411
2442.35096,0.87764
2440.31215,0.87551
2438.27334,0.87252
2436.23453,0.87413
2434.19573,0.86432
2432.15692,0.86007
2430.11811,0.84589
2428.07930,0.84037
2426.04049,0.83342
2424.00169,0.83763
2421.96288,0.82998
2419.92407,0.82422
2417.88526,0.81041
2415.84646,0.80750
2413.80765,0.79839
2411.76884,0.79779
2409.73003,0.78935
2407.69123,0.78608
2405.65242,0.77495
2403.61361,0.77377
2401.57480,0.76462
2399.53600,0.76239
2397.49719,0.75101
2395.45838,0.74479
2393.41957,0.73037
2391.38076,0.72711
2389.34196,0.71801
2387.30315,0.71446
2385.26434,0.70119
2383.22553,0.69730
2381.18673,0.68651
2379.14792,0.68149
2377.10911,0.66620
2375.07030,0.65872
2373.03150,0.64332
2370.99269,0.63313
2368.95388,0.61301
2366.91507,0.60882
2364.87627,0.60863
2362.83746,0.61841
2360.79865,0.61281
2358.75984,0.61018
2356.72103,0.60676
2354.68223,0.61310
2352.64342,0.60647
2350.60461,0.61127
2348.56580,0.60628
2346.52700,0.59302
2344.48819,0.56394
2342.44938,0.55371
2340.41057,0.55014
2338.37177,0.56202
2336.33296,0.56523
2334.29415,0.57095
2332.25534,0.56269
2330.21654,0.55919
2328.17773,0.54979
2326.13892,0.55407
2324.10011,0.55253
2322.06130,0.55803
2320.02250,0.55603
2317.98369,0.56027
2315.94488,0.55143
2313.90607,0.54842
2311.86727,0.53765
2309.82846,0.53269
2307.78965,0.51771
2305.75084,0.51392
2303.71204,0.50681
2301.67323,0.50782
2299.63442,0.49702
2297.59561,0.49431
2295.55681,0.48702
2293.51800,0.48863
2291.47919,0.48139
2289.44038,0.48322
2287.40157,0.47680
2285.36277,0.47558
2283.32396,0.46489
2281.28515,0.46253
2279.24634,0.45143
2277.20754,0.45054
2275.16873,0.44640
2273.12992,0.45035
2271.09111,0.44079
2269.05231,0.43689
2267.01350,0.42685
2264.97469,0.42552
2262.93588,0.41732
2260.89708,0.42070
2258.85827,0.41532
2256.81946,0.41209
2254.78065,0.39913
2252.74184,0.39970
2250.70304,0.39891
2248.66423,0.40442
2246.62542,0.39548
2244.58661,0.39603
2242.54781,0.39096
2240.50900,0.39272
2238.47019,0.38662
2236.43138,0.39020
2234.39258,0.38209
2232.35377,0.37906
2230.31496,0.36949
2228.27615,0.37018
2226.23735,0.36505
2224.19854,0.37168
2222.15973,0.37081
2220.12092,0.37602
2218.08211,0.37025
2216.04331,0.37013
2214.00450,0.36374
2211.96569,0.36968
2209.92688,0.36639
2207.88808,0.36847
2205.84927,0.36531
2203.81046,0.37157
2201.77165,0.36624
2199.73285,0.36724
2197.69404,0.36019
2195.65523,0.36388
2193.61642,0.36283
2191.57762,0.37163
2189.53881,0.37256
2187.50000,0.37827
2185.46119,0.37365
2183.42238,0.37717
2181.38358,0.37083
2179.34477,0.37318
2177.30596,0.37151
2175.26715,0.37902
2173.22835,0.37681
2171.18954,0.38262
2169.15073,0.37806
2167.11192,0.37868
2165.07312,0.37525
2163.03431,0.38330
2160.99550,0.38034
2158.95669,0.38362
2156.91789,0.37877
2154.87908,0.38353
2152.84027,0.38215
2150.80146,0.38917
2148.76265,0.38819
2146.72385,0.39551
2144.68504,0.39453
2142.64623,0.39995
2140.60742,0.39674
2138.56862,0.40444
2136.52981,0.40532
2134.49100,0.41384
2132.45219,0.41359
2130.41339,0.41944
2128.37458,0.41502
2126.33577,0.41670
2124.29696,0.41083
2122.25816,0.41765
2120.21935,0.41815
2118.18054,0.42616
2116.14173,0.42708
2114.10292,0.43722
2112.06412,0.43895
2110.02531,0.44726
2107.98650,0.44417
2105.94769,0.44795
2103.90889,0.44537
2101.87008,0.45251
2099.83127,0.45049
2097.79246,0.45634
2095.75366,0.45453
2093.71485,0.46018
2091.67604,0.45643
2089.63723,0.46075
2087.59843,0.45673
2085.55962,0.46248
2083.52081,0.46118
2081.48200,0.46712
2079.44319,0.46277
2077.40439,0.46731
2075.36558,0.46335
2073.32677,0.46581
2071.28796,0.45997
2069.24916,0.46431
2067.21035,0.45901
2065.17154,0.46076
2063.13273,0.45477
2061.09393,0.45819
2059.05512,0.45253
2057.01631,0.45418
2054.97750,0.44821
2052.93870,0.45442
2050.89989,0.45423
2048.86108,0.46025
2046.82227,0.45359
2044.78346,0.45459
2042.74466,0.44845
2040.70585,0.45336
2038.66704,0.44963
2036.62823,0.45063
2034.58943,0.44037
2032.55062,0.44307
2030.51181,0.44050
2028.47300,0.44342
2026.43420,0.43446
2024.39539,0.43471
2022.35658,0.42851
2020.31777,0.43315
2018.27897,0.42655
2016.24016,0.42671
2014.20135,0.41996
2012.16254,0.42253
2010.12373,0.41374
2008.08493,0.41218
2006.04612,0.40202
2004.00731,0.40265
2001.96850,0.39549
1999.92970,0.39591
1997.89089,0.38766
1995.85208,0.39135
1993.81327,0.38504
1991.77447,0.38647
1989.73566,0.38006
1987.69685,0.38170
1985.65804,0.37300
1983.61924,0.37171
1981.58043,0.35925
1979.54162,0.35605
1977.50281,0.34754
1975.46400,0.35121
1973.42520,0.34692
1971.38639,0.35063
1969.34758,0.34046
1967.30877,0.33795
1965.26997,0.33035
1963.23116,0.33097
1961.19235,0.31963
1959.15354,0.32044
1957.11474,0.31532
1955.07593,0.31744
1953.03712,0.30946
1950.99831,0.31175
1948.95951,0.30345
1946.92070,0.30169
1944.88189,0.28754
1942.84308,0.28241
1940.80427,0.27477
1938.76547,0.27874
1936.72666,0.26984
1934.68785,0.26745
1932.64904,0.25708
1930.61024,0.25691
1928.57143,0.24658
1926.53262,0.24495
1924.49381,0.23575
1922.45501,0.23771
1920.41620,0.22592
1918.37739,0.21994
1916.33858,0.21163
1914.29978,0.21449
1912.26097,0.20398
1910.22216,0.20164
1908.18335,0.19505
1906.14454,0.19997
1904.10574,0.19218
1902.06693,0.18892
1900.02812,0.17505
1897.98931,0.17138
1895.95051,0.16325
1893.91170,0.16831
1891.87289,0.15997
1889.83408,0.15601
1887.79528,0.14737
1885.75647,0.14928
1883.71766,0.13980
1881.67885,0.13792
1879.64004,0.12646
1877.60124,0.12394
1875.56243,0.11506
1873.52362,0.11653
1871.48481,0.10516
1869.44601,0.10135
1867.40720,0.09512
1865.36839,0.09818
1863.32958,0.08840
1861.29078,0.08720
1859.25197,0.07841
1857.21316,0.07768
1855.17435,0.06921
1853.13555,0.07145
1851.09674,0.06498
1849.05793,0.06371
1847.01912,0.04987
1844.98031,0.04562
1842.94151,0.04118
1840.90270,0.04730
1838.86389,0.04195
1836.82508,0.04404
1834.78628,0.03635
1832.74747,0.03147
1830.70866,0.01860
1828.66985,0.02187
1826.63105,0.01813
1824.59224,0.02043
1822.55343,0.01591
1820.51462,0.01868
1818.47582,0.01254
1816.43701,0.01335
1814.39820,0.00449
1812.35939,0.00321
1810.32058,-0.00120
1808.28178,0.00441
1806.24297,0.00020
1804.20416,0.00173
1802.16535,0.00000
1800.12655,0.00951
1798.08774,0.01457
1796.04893,0.02161
1794.01012,0.01514
1791.97132,0.01688
1789.93251,0.01434
1787.89370,0.01565
1785.85489,0.00976
1783.81609,0.01377
1781.77728,0.00926
1779.73847,0.00941
1777.69966,0.00404
1775.66085,0.00594
1773.62205,0.00252
1771.58324,0.00542
1769.54443,0.00188
1767.50562,0.00401
1765.46682,0.00000
1763.42801,0.00115
1761.38920,-0.00013
1759.35039,0.00380
1757.31159,-0.00054
1755.27278,0.00249
1753.23397,-0.00284
1751.19516,-0.00346
1749.15636,-0.00249
1747.11755,0.01108
1745.07874,0.01983
1743.03993,0.02824
1741.00112,0.02667
1738.96232,0.03099
1736.92351,0.02893
1734.88470,0.03823
1732.84589,0.05561
1730.80709,0.07721
1728.76828,0.08820
1726.72947,0.10166
1724.69066,0.11113
1722.65186,0.12605
1720.61305,0.13183
1718.57424,0.14319
1716.53543,0.16379
1714.49663,0.19518
1712.45782,0.21895
1710.41901,0.24471
1708.38020,0.27095
1706.34139,0.30739
1704.30259,0.33683
1702.26378,0.36350
1700.22497,0.39782
1698.18616,0.44494
1696.14736,0.48299
1694.10855,0.52242
1692.06974,0.55749
1690.03093,0.59820
1687.99213,0.63875
1685.95332,0.68449
1683.91451,0.72611
1681.87570,0.77115
1679.83690,0.81258
1677.79809,0.85929
1675.75928,0.90016
1673.72047,0.94572
1671.68166,0.98445
1669.64286,1.01322
1667.60405,1.02757
1665.56524,1.04601
1663.52643,1.05119
1661.48763,1.05065
1659.44882,1.03960
1657.41001,1.03208
1655.37120,1.01039
1653.33240,0.98499
1651.29359,0.96071
1649.25478,0.94972
1647.21597,0.93026
1645.17717,0.91729
1643.13836,0.89919
1641.09955,0.88870
1639.06074,0.87404
1637.02193,0.86187
1634.98313,0.83648
1632.94432,0.81610
1630.90551,0.78682
1628.86670,0.76336
1626.82790,0.73175
1624.78909,0.70217
1622.75028,0.66427
1620.71147,0.63754
1618.67267,0.60407
1616.63386,0.58352
1614.59505,0.56246
1612.55624,0.54631
1610.51744,0.52282
1608.47863,0.51103
1606.43982,0.49643
1604.40101,0.48915
1602.36220,0.47618
1600.32340,0.47265
1598.28459,0.46341
1596.24578,0.46326
1594.20697,0.46471
1592.16817,0.47832
1590.12936,0.48674
1588.09055,0.50176
1586.05174,0.51158
1584.01294,0.52770
1581.97413,0.53908
1579.93532,0.55735
1577.89651,0.56569
1575.85771,0.57791
1573.81890,0.58927
1571.78009,0.61109
1569.74128,0.63293
1567.70247,0.66576
1565.66367,0.69196
1563.62486,0.72372
1561.58605,0.75254
1559.54724,0.78380
1557.50844,0.79817
1555.46963,0.80657
1553.43082,0.80004
1551.39201,0.79666
1549.35321,0.78319
1547.31440,0.77465
1545.27559,0.75703
1543.23678,0.74471
1541.19798,0.71576
1539.15917,0.68374
1537.12036,0.64562
1535.08155,0.61963
1533.04274,0.59423
1531.00394,0.58344
1528.96513,0.56637
1526.92632,0.55839
1524.88751,0.54648
1522.84871,0.54317
1520.80990,0.53467
1518.77109,0.53380
1516.73228,0.52155
1514.69348,0.51428
1512.65467,0.49913
1510.61586,0.49377
1508.57705,0.48022
1506.53825,0.47428
1504.49944,0.46357
1502.46063,0.45778
1500.42182,0.44131
1498.38301,0.43134
1496.34421,0.41611
1494.30540,0.41089
1492.26659,0.39752
1490.22778,0.39371
1488.18898,0.38818
1486.15017,0.39154
1484.11136,0.38976
1482.07255,0.39996
1480.03375,0.40861
1477.99494,0.42568
1475.95613,0.43544
1473.91732,0.45008
1471.87852,0.45856
1469.83971,0.47620
1467.80090,0.48473
1465.76209,0.49559
1463.72328,0.50189
1461.68448,0.52156
1459.64567,0.53648
1457.60686,0.55364
1455.56805,0.55785
1453.52925,0.56473
1451.49044,0.56116
1449.45163,0.56300
1447.41282,0.55553
1445.37402,0.55205
1443.33521,0.53696
1441.29640,0.52976
1439.25759,0.51770
1437.21879,0.51324
1435.17998,0.50025
1433.14117,0.49245
1431.10236,0.47455
1429.06355,0.46834
1427.02475,0.45888
1424.98594,0.45721
1422.94713,0.44760
1420.90832,0.44421
1418.86952,0.43223
1416.83071,0.43094
1414.79190,0.42172
1412.75309,0.41790
1410.71429,0.40618
1408.67548,0.40579
1406.63667,0.39988
1404.59786,0.40250
1402.55906,0.39673
1400.52025,0.39799
1398.48144,0.39241
1396.44263,0.39253
1394.40382,0.38039
1392.36502,0.37767
1390.32621,0.36868
1388.28740,0.36622
1386.24859,0.35596
1384.20979,0.35640
1382.17098,0.35098
1380.13217,0.35392
1378.09336,0.34720
1376.05456,0.34711
1374.01575,0.33865
1371.97694,0.33732
1369.93813,0.32489
1367.89933,0.31844
1365.86052,0.30239
1363.82171,0.29485
1361.78290,0.28308
1359.74409,0.28209
1357.70529,0.27189
1355.66648,0.26963
1353.62767,0.26468
1351.58886,0.27546
1349.55006,0.28201
1347.51125,0.29545
1345.47244,0.30008
1343.43363,0.31357
1341.39483,0.32055
1339.35602,0.33558
1337.31721,0.34295
1335.27840,0.35685
1333.23960,0.35849
1331.20079,0.36193
1329.16198,0.35080
1327.12317,0.34279
1325.08436,0.32366
1323.04556,0.31369
1321.00675,0.29628
1318.96794,0.28616
1316.92913,0.26683
1314.89033,0.25618
1312.85152,0.23908
1310.81271,0.23488
1308.77390,0.22447
1306.73510,0.22149
1304.69629,0.20912
1302.65748,0.20576
1300.61867,0.19528
1298.57987,0.19503
1296.54106,0.18855
1294.50225,0.19102
1292.46344,0.18817
1290.42463,0.19855
1288.38583,0.20436
1286.34702,0.21738
1284.30821,0.21833
1282.26940,0.22537
1280.23060,0.22477
1278.19179,0.22996
1276.15298,0.22480
1274.11417,0.22650
1272.07537,0.21972
1270.03656,0.22379
1267.99775,0.22391
1265.95894,0.23155
1263.92013,0.22940
1261.88133,0.23665
1259.84252,0.23763
1257.80371,0.24676
1255.76490,0.25087
1253.72610,0.26619
1251.68729,0.27644
1249.64848,0.29648
1247.60967,0.30836
1245.57087,0.32767
1243.53206,0.34137
1241.49325,0.36210
1239.45444,0.37011
1237.41564,0.37956
1235.37683,0.37707
1233.33802,0.38286
1231.29921,0.37920
1229.26040,0.38020
1227.22160,0.36791
1225.18279,0.36018
1223.14398,0.34230
1221.10517,0.33265
1219.06637,0.31462
1217.02756,0.30839
1214.98875,0.29704
1212.94994,0.29863
1210.91114,0.29786
1208.87233,0.31297
1206.83352,0.32258
1204.79471,0.33916
1202.75591,0.34370
1200.71710,0.35240
1198.67829,0.34695
1196.63948,0.34731
1194.60067,0.33689
1192.56187,0.33442
1190.52306,0.31960
1188.48425,0.31149
1186.44544,0.29586
1184.40664,0.29291
1182.36783,0.28165
1180.32902,0.28196
1178.29021,0.27461
1176.25141,0.27572
1174.21260,0.26560
1172.17379,0.26307
1170.13498,0.25207
1168.09618,0.25703
1166.05737,0.25518
1164.01856,0.26009
1161.97975,0.25290
1159.94094,0.25561
1157.90214,0.25119
1155.86333,0.25789
1153.82452,0.25196
1151.78571,0.25068
1149.74691,0.23694
1147.70810,0.23453
1145.66929,0.22132
1143.63048,0.21558
1141.59168,0.20189
1139.55287,0.20170
1137.51406,0.19077
1135.47525,0.18915
1133.43645,0.17899
1131.39764,0.18176
1129.35883,0.17591
1127.32002,0.17597
1125.28121,0.16212
1123.24241,0.16146
1121.20360,0.15515
1119.16479,0.16012
1117.12598,0.15464
1115.08718,0.15785
1113.04837,0.15123
1111.00956,0.15679
1108.97075,0.15046
1106.93195,0.15095
1104.89314,0.14258
1102.85433,0.14536
1100.81552,0.13751
1098.77672,0.14039
1096.73791,0.13533
1094.69910,0.14277
1092.66029,0.14271
1090.62148,0.15342
1088.58268,0.15579
1086.54387,0.17095
1084.50506,0.17838
1082.46625,0.19477
1080.42745,0.19825
1078.38864,0.20771
1076.34983,0.20303
1074.31102,0.20429
1072.27222,0.19486
1070.23341,0.19897
1068.19460,0.19640
1066.15579,0.20632
1064.11699,0.20733
1062.07818,0.21774
1060.03937,0.21467
1058.00056,0.21828
1055.96175,0.21033
1053.92295,0.21427
1051.88414,0.20710
1049.84533,0.20898
1047.80652,0.20156
1045.76772,0.20607
1043.72891,0.19918
1041.69010,0.20172
1039.65129,0.19320
1037.61249,0.20101
1035.57368,0.20208
1033.53487,0.20932
1031.49606,0.20193
1029.45726,0.20850
1027.41845,0.20507
1025.37964,0.20784
1023.34083,0.19453
1021.30202,0.19369
1019.26322,0.18439
1017.22441,0.18760
1015.18560,0.17831
1013.14679,0.18018
1011.10799,0.17152
1009.06918,0.17383
1007.03037,0.16292
1004.99156,0.16348
1002.95276,0.15115
1000.91395,0.15034
998.87514,0.13787
996.83633,0.13654
994.79753,0.12135
992.75872,0.11684
990.71991,0.09829
988.68110,0.09141
986.64229,0.07596
984.60349,0.07824
982.56468,0.07072
980.52587,0.07652
978.48706,0.07295
976.44826,0.08216
974.40945,0.07813
972.37064,0.08504
970.33183,0.07861
968.29303,0.08176
966.25422,0.07211
964.21541,0.07722
962.17660,0.07300
960.13780,0.08063
958.09899,0.07365
956.06018,0.07568
954.02137,0.06520
951.98256,0.06905
949.94376,0.06202
947.90495,0.06944
945.86614,0.06592
943.82733,0.07136
941.78853,0.06374
939.74972,0.07266
937.71091,0.07250
935.67210,0.08171
933.63330,0.07203
931.59449,0.07168
929.55568,0.06208
927.51687,0.06844
925.47807,0.06250
923.43926,0.06792
921.40045,0.05962
919.36164,0.06302
917.32283,0.05320
915.28403,0.05486
913.24522,0.04199
911.20641,0.04106
909.16760,0.02959
907.12880,0.03453
905.08999,0.02723
903.05118,0.02860
901.01237,0.01487
898.97357,0.01657
896.93476,0.00863
894.89595,0.01395
892.85714,0.00516
890.81834,0.00816
888.77953,0.00000
886.74072,0.00504
884.70191,-0.00112
882.66310,0.00961
880.62430,0.01649
878.58549,0.04085
876.54668,0.05242
874.50787,0.06915
872.46907,0.05925
870.43026,0.04926
868.39145,0.02966
866.35264,0.03258
864.31384,0.02465
862.27503,0.02706
860.23622,0.01551
858.19741,0.01794
856.15861,0.01013
854.11980,0.01789
852.08099,0.01496
850.04218,0.02299
848.00337,0.01445
845.96457,0.01776
843.92576,0.01090
841.88695,0.01415
839.84814,0.00000
837.80934,0.00300
835.77053,0.00075
833.73172,0.01040
831.69291,0.00464
829.65411,0.00964
827.61530,0.00099
825.57649,0.00614
823.53768,0.00019
821.49888,0.00782
819.46007,0.00236
817.42126,0.00707
815.38245,-0.00236
813.34364,0.00403
811.30484,0.00318
809.26603,0.01252
807.22722,0.00439
805.18841,0.00866
803.14961,0.00000
801.11080,0.00487
799.07199,0.00218
797.03318,0.01522
794.99438,0.01498
792.95557,0.02342
790.91676,0.01688
788.87795,0.02228
786.83915,0.01276
784.80034,0.01581
782.76153,0.01017
780.72272,0.01961
778.68391,0.01464
776.64511,0.01969
774.60630,0.01395
772.56749,0.02434
770.52868,0.02208
768.48988,0.02954
766.45107,0.02296
764.41226,0.02984
762.37345,0.02344
760.33465,0.03101
758.29584,0.02937
756.25703,0.03950
754.21822,0.03326
752.17942,0.03847
750.14061,0.03019
748.10180,0.03685
746.06299,0.03393
744.02418,0.04350
741.98538,0.04020
739.94657,0.05195
737.90776,0.05100
735.86895,0.05960
733.83015,0.05122
731.79134,0.05724
729.75253,0.05483
727.71372,0.06409
725.67492,0.05731
723.63611,0.06423
721.59730,0.05779
719.55849,0.06696
717.51969,0.06483
715.48088,0.07530
713.44207,0.06952
711.40326,0.07602
709.36445,0.07104
707.32565,0.08364
705.28684,0.08419
703.24803,0.09635
701.20922,0.09147
699.17042,0.09929
697.13161,0.09360
695.09280,0.09965
693.05399,0.08973
691.01519,0.09726
688.97638,0.09294
686.93757,0.10347
684.89876,0.10009
682.85996,0.11026
680.82115,0.10603
678.78234,0.11715
676.74353,0.11253
674.70472,0.12211
672.66592,0.11855
670.62711,0.12740
668.58830,0.11614
666.54949,0.12237
664.51069,0.11581
662.47188,0.12431
660.43307,0.12074
658.39426,0.13722
656.35546,0.13703
654.31665,0.14635
652.27784,0.13817
650.23903,0.14906
648.20022,0.14423
646.16142,0.15504
644.12261,0.15052
642.08380,0.16037
640.04499,0.14849
638.00619,0.15302
635.96738,0.14371
633.92857,0.15234
631.88976,0.14082
629.85096,0.14816
627.81215,0.14412
625.77334,0.16036
623.73453,0.15519
621.69573,0.16449
619.65692,0.15448
617.61811,0.16285
615.57930,0.15252
613.54049,0.16256
611.50169,0.15709
609.46288,0.17121
607.42407,0.16071
605.38526,0.16692
603.34646,0.15443
601.30765,0.16172
599.26884,0.14780
597.23003,0.15806
595.19123,0.15145
593.15242,0.16462
591.11361,0.15472
589.07480,0.16424
587.03600,0.15199
584.99719,0.16246
582.95838,0.15135
580.91957,0.16442
578.88076,0.15702
576.84196,0.16871
574.80315,0.15728
572.76434,0.17369
570.72553,0.16888
568.68673,0.18332
566.64792,0.16801
564.60911,0.17481
562.57030,0.15976
560.53150,0.17386
558.49269,0.16519
556.45388,0.18071
554.41507,0.16677
552.37627,0.17329
550.33746,0.15104
548.29865,0.16202
546.25984,0.15180
544.22103,0.16945
542.18223,0.15451
540.14342,0.16415
538.10461,0.14683
536.06580,0.16219
534.02700,0.14586
531.98819,0.15634
529.94938,0.13851
527.91057,0.15525
525.87177,0.14138
523.83296,0.15594
521.79415,0.13353
519.75534,0.14572
517.71654,0.12936
515.67773,0.14385
513.63892,0.11870
511.60011,0.13168
509.56130,0.11592
507.52250,0.13636
505.48369,0.11891
503.44488,0.13770
501.40607,0.12122
499.36727,0.14141
497.32846,0.11997
495.28965,0.13634
493.25084,0.11389
491.21204,0.13424
489.17323,0.11461
487.13442,0.13316
485.09561,0.10594
483.05681,0.12427
481.01800,0.10264
478.97919,0.13089
476.94038,0.11309
474.90157,0.13489
472.86277,0.10399
470.82396,0.12305
468.78515,0.09036
466.74634,0.10938
464.70754,0.07926
462.66873,0.10560
460.62992,0.07217
458.59111,0.09217
456.55231,0.06262
454.51350,0.09647
452.47469,0.06554
450.43588,0.09163
448.39708,0.05809
446.35827,0.09146
444.31946,0.05778
442.28065,0.08997
440.24184,0.05448
438.20304,0.09156
436.16423,0.05382
434.12542,0.08882
432.08661,0.04817
430.04781,0.09398
428.00900,0.05933
425.97019,0.10500
423.93138,0.05518
421.89258,0.09488
419.85377,0.03049
417.81496,0.07619
415.77615,0.02314
413.73735,0.08119
411.69854,0.02073
409.65973,0.08025
407.62092,0.01318
405.58211,0.08687
403.54331,0.02005
401.50450,0.10090
399.46569,0.01639
397.42688,0.11026
395.38808,0.01852
393.34927,0.13481
391.31046,0.02598
389.27165,0.17646
387.23285,0.02313
385.19404,0.21184
383.15523,0.00005
381.11642,0.31918
379.07762,-0.00099
377.03881,0.61497
375.00000,0.00000
