4000.00000,0.00000
3997.96119,0.01552
3995.92238,0.01021
3993.88358,0.00632
3991.84477,0.01588
3989.80596,0.04256
3987.76715,0.06955
3985.72835,0.09746
3983.68954,0.10208
3981.65073,0.09820
3979.61192,0.10684
3977.57312,0.14720
3975.53431,0.19070
3973.49550,0.21509
3971.45669,0.20627
3969.41789,0.19899
3967.37908,0.21477
3965.34027,0.24972
3963.30146,0.26924
3961.26265,0.27681
3959.22385,0.27361
3957.18504,0.28211
3955.14623,0.29602
3953.10742,0.30645
3951.06862,0.30607
3949.02981,0.31631
3946.99100,0.32849
3944.95219,0.32897
3942.91339,0.30624
3940.87458,0.29402
3938.83577,0.29399
3936.79696,0.30387
3934.75816,0.29891
3932.71935,0.29273
3930.68054,0.29957
3928.64173,0.31799
3926.60292,0.31921
3924.56412,0.32168
3922.52531,0.33157
3920.48650,0.33785
3918.44769,0.32404
3916.40889,0.31814
3914.37008,0.31583
3912.33127,0.30685
3910.29246,0.29135
3908.25366,0.28861
3906.21485,0.28173
3904.17604,0.28716
3902.13723,0.30730
3900.09843,0.32316
3898.05962,0.31529
3896.02081,0.29690
3893.98200,0.26426
3891.94319,0.24417
3889.90439,0.24479
3887.86558,0.24266
3885.82677,0.23472
3883.78796,0.27238
3881.74916,0.30703
3879.71035,0.31326
3877.67154,0.28821
3875.63273,0.25047
3873.59393,0.23705
3871.55512,0.23838
3869.51631,0.23902
3867.47750,0.25940
3865.43870,0.26363
3863.39989,0.27260
3861.36108,0.27803
3859.32227,0.27027
3857.28346,0.24551
3855.24466,0.22049
3853.20585,0.23324
3851.16704,0.27719
3849.12823,0.27945
3847.08943,0.25323
3845.05062,0.23022
3843.01181,0.25171
3840.97300,0.28777
3838.93420,0.30737
3836.89539,0.30966
3834.85658,0.30992
3832.81777,0.29069
3830.77897,0.27136
3828.74016,0.23821
3826.70135,0.20449
3824.66254,0.18359
3822.62373,0.16675
3820.58493,0.16988
3818.54612,0.18804
3816.50731,0.17876
3814.46850,0.18819
3812.42970,0.18370
3810.39089,0.15422
3808.35208,0.12767
3806.31327,0.15154
3804.27447,0.17640
3802.23566,0.17057
3800.19685,0.17666
3798.15804,0.18335
3796.11924,0.15627
3794.08043,0.12838
3792.04162,0.10656
3790.00281,0.11210
3787.96400,0.12273
3785.92520,0.12545
3783.88639,0.11650
3781.84758,0.10853
3779.80877,0.09187
3777.76997,0.08493
3775.73116,0.06699
3773.69235,0.05238
3771.65354,0.03783
3769.61474,0.03271
3767.57593,0.02161
3765.53712,0.01034
3763.49831,0.00487
3761.45951,0.00159
3759.42070,0.00000
3757.38189,0.01359
3755.34308,0.01560
3753.30427,0.00467
3751.26547,0.00463
3749.22666,0.03650
3747.18785,0.03827
3745.14904,0.01486
3743.11024,0.03184
3741.07143,0.05849
3739.03262,0.05188
3736.99381,0.04779
3734.95501,0.05644
3732.91620,0.06812
3730.87739,0.06717
3728.83858,0.06408
3726.79978,0.05295
3724.76097,0.04238
3722.72216,0.01929
3720.68335,0.00206
3718.64454,-0.00825
3716.60574,-0.00378
3714.56693,0.00980
3712.52812,0.03822
3710.48931,0.05824
3708.45051,0.05717
3706.41170,0.03802
3704.37289,0.01740
3702.33408,0.00404
3700.29528,-0.00221
3698.25647,-0.00152
3696.21766,0.00594
3694.17885,0.00610
3692.14004,0.00000
3690.10124,0.01475
3688.06243,0.06852
3686.02362,0.10524
3683.98481,0.11254
3681.94601,0.12454
3679.90720,0.16610
3677.86839,0.21916
3675.82958,0.29343
3673.79078,0.36646
3671.75197,0.39850
3669.71316,0.42501
3667.67435,0.46680
3665.63555,0.50041
3663.59674,0.54494
3661.55793,0.58845
3659.51912,0.61334
3657.48031,0.63824
3655.44151,0.70420
3653.40270,0.78162
3651.36389,0.85352
3649.32508,0.92855
3647.28628,0.99036
3645.24747,1.01981
3643.20866,1.03875
3641.16985,1.06178
3639.13105,1.08535
3637.09224,1.10236
3635.05343,1.12880
3633.01462,1.16451
3630.97582,1.20740
3628.93701,1.26138
3626.89820,1.30983
3624.85939,1.31970
3622.82058,1.31659
3620.78178,1.33497
3618.74297,1.39005
3616.70416,1.44304
3614.66535,1.48054
3612.62655,1.50627
3610.58774,1.51730
3608.54893,1.52438
3606.51012,1.55156
3604.47132,1.57602
3602.43251,1.59334
3600.39370,1.59986
3598.35489,1.60132
3596.31609,1.61488
3594.27728,1.65159
3592.23847,1.68410
3590.19966,1.70729
3588.16085,1.72222
3586.12205,1.73226
3584.08324,1.73628
3582.04443,1.75183
3580.00562,1.77302
3577.96682,1.78571
3575.92801,1.78909
3573.88920,1.81340
3571.85039,1.84693
3569.81159,1.86082
3567.77278,1.84877
3565.73397,1.85230
3563.69516,1.87910
3561.65636,1.91293
3559.61755,1.93744
3557.57874,1.96194
3555.53993,1.98106
3553.50112,1.99089
3551.46232,1.98950
3549.42351,1.99197
3547.38470,2.00445
3545.34589,2.02806
3543.30709,2.03903
3541.26828,2.03627
3539.22947,2.02667
3537.19066,2.02591
3535.15186,2.03700
3533.11305,2.06752
3531.07424,2.10088
3529.03543,2.11933
3526.99663,2.11088
3524.95782,2.09804
3522.91901,2.09891
3520.88020,2.12389
3518.84139,2.15397
3516.80259,2.17125
3514.76378,2.16423
3512.72497,2.15495
3510.68616,2.14963
3508.64736,2.15742
3506.60855,2.16863
3504.56974,2.17320
3502.53093,2.16427
3500.49213,2.16218
3498.45332,2.17420
3496.41451,2.19113
3494.37570,2.19059
3492.33690,2.19449
3490.29809,2.21460
3488.25928,2.24163
3486.22047,2.25680
3484.18166,2.26137
3482.14286,2.25067
3480.10405,2.23715
3478.06524,2.22096
3476.02643,2.21435
3473.98763,2.21436
3471.94882,2.22111
3469.91001,2.22579
3467.87120,2.23148
3465.83240,2.23389
3463.79359,2.24109
3461.75478,2.24646
3459.71597,2.25303
3457.67717,2.25662
3455.63836,2.26154
3453.59955,2.26072
3451.56074,2.26583
3449.52193,2.26866
3447.48313,2.26625
3445.44432,2.26393
3443.40551,2.27204
3441.36670,2.27467
3439.32790,2.28056
3437.28909,2.28443
3435.25028,2.28051
3433.21147,2.27108
3431.17267,2.28276
3429.13386,2.30317
3427.09505,2.30425
3425.05624,2.27631
3423.01744,2.26422
3420.97863,2.27931
3418.93982,2.29810
3416.90101,2.29151
3414.86220,2.27142
3412.82340,2.25151
3410.78459,2.26471
3408.74578,2.30123
3406.70697,2.32969
3404.66817,2.32440
3402.62936,2.30647
3400.59055,2.29431
3398.55174,2.30382
3396.51294,2.31461
3394.47413,2.31262
3392.43532,2.29401
3390.39651,2.28221
3388.35771,2.28652
3386.31890,2.30503
3384.28009,2.30336
3382.24128,2.29339
3380.20247,2.29499
3378.16367,2.30640
3376.12486,2.30605
3374.08605,2.29870
3372.04724,2.28158
3370.00844,2.26814
3367.96963,2.26491
3365.93082,2.28609
3363.89201,2.30396
3361.85321,2.31018
3359.81440,2.31333
3357.77559,2.31835
3355.73678,2.31564
3353.69798,2.31552
3351.65917,2.30408
3349.62036,2.29244
3347.58155,2.28978
3345.54274,2.29460
3343.50394,2.28722
3341.46513,2.29078
3339.42632,2.30879
3337.38751,2.32583
3335.34871,2.33518
3333.30990,2.35011
3331.27109,2.35115
3329.23228,2.33863
3327.19348,2.30864
3325.15467,2.29274
3323.11586,2.30205
3321.07705,2.31437
3319.03825,2.30695
3316.99944,2.31084
3314.96063,2.32879
3312.92182,2.34326
3310.88301,2.33787
3308.84421,2.33114
3306.80540,2.31899
3304.76659,2.30570
3302.72778,2.29053
3300.68898,2.28461
3298.65017,2.27459
3296.61136,2.26780
3294.57255,2.26893
3292.53375,2.28416
3290.49494,2.29217
3288.45613,2.29734
3286.41732,2.29675
3284.37852,2.29051
3282.33971,2.27384
3280.30090,2.26995
3278.26209,2.27879
3276.22328,2.29043
3274.18448,2.27709
3272.14567,2.25971
3270.10686,2.25267
3268.06805,2.25081
3266.02925,2.24130
3263.99044,2.24254
3261.95163,2.23823
3259.91282,2.23234
3257.87402,2.23021
3255.83521,2.23548
3253.79640,2.23576
3251.75759,2.24234
3249.71879,2.24313
3247.67998,2.23417
3245.64117,2.21075
3243.60236,2.19247
3241.56355,2.17455
3239.52475,2.16792
3237.48594,2.16750
3235.44713,2.17646
3233.40832,2.18412
3231.36952,2.19246
3229.33071,2.19076
3227.29190,2.18439
3225.25309,2.16889
3223.21429,2.16463
3221.17548,2.16790
3219.13667,2.17320
3217.09786,2.16607
3215.05906,2.16623
3213.02025,2.17132
3210.98144,2.17485
3208.94263,2.16262
3206.90382,2.14991
3204.86502,2.14087
3202.82621,2.14659
3200.78740,2.14265
3198.74859,2.12694
3196.70979,2.10794
3194.67098,2.10815
3192.63217,2.11633
3190.59336,2.12656
3188.55456,2.12574
3186.51575,2.12979
3184.47694,2.13118
3182.43813,2.12778
3180.39933,2.10908
3178.36052,2.09083
3176.32171,2.07598
3174.28290,2.07645
3172.24409,2.07970
3170.20529,2.08591
3168.16648,2.08428
3166.12767,2.08873
3164.08886,2.09237
3162.05006,2.09378
3160.01125,2.08327
3157.97244,2.07975
3155.93363,2.07935
3153.89483,2.07894
3151.85602,2.06313
3149.81721,2.05189
3147.77840,2.05037
3145.73960,2.05997
3143.70079,2.06025
3141.66198,2.05925
3139.62317,2.04902
3137.58436,2.03414
3135.54556,2.00804
3133.50675,1.98500
3131.46794,1.96679
3129.42913,1.96642
3127.39033,1.96343
3125.35152,1.96035
3123.31271,1.96265
3121.27390,1.97548
3119.23510,1.96681
3117.19629,1.95024
3115.15748,1.94398
3113.11867,1.95132
3111.07987,1.94806
3109.04106,1.94430
3107.00225,1.93490
3104.96344,1.93200
3102.92463,1.92768
3100.88583,1.92272
3098.84702,1.90847
3096.80821,1.90649
3094.76940,1.91597
3092.73060,1.93559
3090.69179,1.94398
3088.65298,1.94129
3086.61417,1.92438
3084.57537,1.91826
3082.53656,1.92041
3080.49775,1.93709
3078.45894,1.95361
3076.42013,1.96478
3074.38133,1.96036
3072.34252,1.96489
3070.30371,1.97435
3068.26490,1.98403
3066.22610,1.98586
3064.18729,1.99180
3062.14848,1.98043
3060.10967,1.96481
3058.07087,1.95421
3056.03206,1.95670
3053.99325,1.95916
3051.95444,1.97329
3049.91564,1.98462
3047.87683,1.98489
3045.83802,1.96333
3043.79921,1.94853
3041.76040,1.93711
3039.72160,1.92746
3037.68279,1.91621
3035.64398,1.92093
3033.60517,1.92365
3031.56637,1.92483
3029.52756,1.91566
3027.48875,1.91123
3025.44994,1.90488
3023.41114,1.89660
3021.37233,1.87724
3019.33352,1.86571
3017.29471,1.85069
3015.25591,1.83899
3013.21710,1.82353
3011.17829,1.81191
3009.13948,1.79943
3007.10067,1.79863
3005.06187,1.79447
3003.02306,1.78974
3000.98425,1.76883
2998.94544,1.75044
2996.90664,1.74415
2994.86783,1.75371
2992.82902,1.75341
2990.79021,1.75161
2988.75141,1.74913
2986.71260,1.75860
2984.67379,1.76375
2982.63498,1.76734
2980.59618,1.76394
2978.55737,1.76799
2976.51856,1.77450
2974.47975,1.79173
2972.44094,1.80125
2970.40214,1.80801
2968.36333,1.80246
2966.32452,1.80216
2964.28571,1.81268
2962.24691,1.83280
2960.20810,1.83914
2958.16929,1.85178
2956.13048,1.86515
2954.09168,1.86828
2952.05287,1.85278
2950.01406,1.84830
2947.97525,1.85080
2945.93645,1.86709
2943.89764,1.88652
2941.85883,1.90857
2939.82002,1.91965
2937.78121,1.93645
2935.74241,1.95042
2933.70360,1.96614
2931.66479,1.98203
2929.62598,2.01282
2927.58718,2.04252
2925.54837,2.07777
2923.50956,2.10713
2921.47075,2.12856
2919.43195,2.12659
2917.39314,2.11174
2915.35433,2.08016
2913.31552,2.04690
2911.27672,2.01451
2909.23791,2.00189
2907.19910,1.98548
2905.16029,1.97214
2903.12148,1.96261
2901.08268,1.96223
2899.04387,1.94474
2897.00506,1.91995
2894.96625,1.89902
2892.92745,1.90067
2890.88864,1.90004
2888.84983,1.89990
2886.81102,1.90289
2884.77222,1.92241
2882.73341,1.92928
2880.69460,1.93080
2878.65579,1.93966
2876.61699,1.96630
2874.57818,1.98269
2872.53937,1.99675
2870.50056,2.00114
2868.46175,2.00955
2866.42295,2.01682
2864.38414,2.02482
2862.34533,2.01842
2860.30652,2.01909
2858.26772,2.02471
2856.22891,2.04509
2854.19010,2.07336
2852.15129,2.11364
2850.11249,2.12972
2848.07368,2.12514
2846.03487,2.10171
2843.99606,2.07665
2841.95726,2.04544
2839.91845,2.02350
2837.87964,2.00540
2835.84083,2.00527
2833.80202,2.00063
2831.76322,1.99694
2829.72441,1.98965
2827.68560,1.98830
2825.64679,1.97436
2823.60799,1.96745
2821.56918,1.96305
2819.53037,1.96219
2817.49156,1.94723
2815.45276,1.93929
2813.41395,1.93598
2811.37514,1.94280
2809.33633,1.93544
2807.29753,1.92922
2805.25872,1.92548
2803.21991,1.93315
2801.18110,1.93052
2799.14229,1.92994
2797.10349,1.92574
2795.06468,1.92686
2793.02587,1.91381
2790.98706,1.90468
2788.94826,1.89791
2786.90945,1.90373
2784.87064,1.90452
2782.83183,1.91179
2780.79303,1.91279
2778.75422,1.91654
2776.71541,1.90990
2774.67660,1.90683
2772.63780,1.90272
2770.59899,1.90951
2768.56018,1.90289
2766.52137,1.89847
2764.48256,1.89031
2762.44376,1.88681
2760.40495,1.87710
2758.36614,1.87708
2756.32733,1.86770
2754.28853,1.85741
2752.24972,1.84620
2750.21091,1.85472
2748.17210,1.85852
2746.13330,1.85987
2744.09449,1.85081
2742.05568,1.85224
2740.01687,1.84622
2737.97807,1.83888
2735.93926,1.82366
2733.90045,1.82570
2731.86164,1.82804
2729.82283,1.83202
2727.78403,1.82358
2725.74522,1.81659
2723.70641,1.80096
2721.66760,1.80054
2719.62880,1.80065
2717.58999,1.80132
2715.55118,1.78784
2713.51237,1.78135
2711.47357,1.77035
2709.43476,1.76852
2707.39595,1.75808
2705.35714,1.75006
2703.31834,1.73420
2701.27953,1.72711
2699.24072,1.71686
2697.20191,1.71918
2695.16310,1.71588
2693.12430,1.71485
2691.08549,1.70213
2689.04668,1.69377
2687.00787,1.67615
2684.96907,1.66696
2682.93026,1.65545
2680.89145,1.65208
2678.85264,1.63871
2676.81384,1.63427
2674.77503,1.62768
2672.73622,1.62981
2670.69741,1.62355
2668.65861,1.62234
2666.61980,1.61116
2664.58099,1.60848
2662.54218,1.60488
2660.50337,1.60961
2658.46457,1.60003
2656.42576,1.59687
2654.38695,1.58930
2652.34814,1.58419
2650.30934,1.57332
2648.27053,1.58021
2646.23172,1.58192
2644.19291,1.58405
2642.15411,1.57252
2640.11530,1.56750
2638.07649,1.55350
2636.03768,1.54906
2633.99888,1.54752
2631.96007,1.55742
2629.92126,1.55380
2627.88245,1.55234
2625.84364,1.54502
2623.80484,1.54598
2621.76603,1.53291
2619.72722,1.52780
2617.68841,1.52180
2615.64961,1.52300
2613.61080,1.51486
2611.57199,1.52006
2609.53318,1.51882
2607.49438,1.51575
2605.45557,1.49761
2603.41676,1.48837
2601.37795,1.47538
2599.33915,1.47543
2597.30034,1.47204
2595.26153,1.47262
2593.22272,1.45784
2591.18391,1.45286
2589.14511,1.44530
2587.10630,1.44482
2585.06749,1.43341
2583.02868,1.43073
2580.98988,1.41830
2578.95107,1.40957
2576.91226,1.39451
2574.87345,1.39402
2572.83465,1.38897
2570.79584,1.38757
2568.75703,1.37353
2566.71822,1.37061
2564.67942,1.36240
2562.64061,1.36044
2560.60180,1.34687
2558.56299,1.34154
2556.52418,1.32968
2554.48538,1.32509
2552.44657,1.31052
2550.40776,1.30546
2548.36895,1.29492
2546.33015,1.29532
2544.29134,1.29210
2542.25253,1.29943
2540.21372,1.29282
2538.17492,1.28919
2536.13611,1.27419
2534.09730,1.26650
2532.05849,1.25515
2530.01969,1.25168
2527.98088,1.23415
2525.94207,1.22984
2523.90326,1.22504
2521.86445,1.22995
2519.82565,1.22506
2517.78684,1.22968
2515.74803,1.22906
2513.70922,1.23508
2511.67042,1.22839
2509.63161,1.23481
2507.59280,1.23848
2505.55399,1.24678
2503.51519,1.24053
2501.47638,1.23948
2499.43757,1.22711
2497.39876,1.22561
2495.35996,1.22069
2493.32115,1.22482
2491.28234,1.21765
2489.24353,1.21778
2487.20472,1.20754
2485.16592,1.20691
2483.12711,1.19766
2481.08830,1.19466
2479.04949,1.18137
2477.01069,1.17270
2474.97188,1.15300
2472.93307,1.15131
2470.89426,1.14780
2468.85546,1.15041
2466.81665,1.13882
2464.77784,1.13278
2462.73903,1.11682
2460.70022,1.11303
2458.66142,1.10561
2456.62261,1.10929
2454.58380,1.09972
2452.54499,1.09693
2450.50619,1.08544
2448.46738,1.08237
2446.42857,1.06778
2444.38976,1.06092
2442.35096,1.04752
2440.31215,1.04670
2438.27334,1.03608
2436.23453,1.03445
2434.19573,1.02436
2432.15692,1.02305
2430.11811,1.00919
2428.07930,1.00290
2426.04049,0.99052
2424.00169,0.98812
2421.96288,0.97292
2419.92407,0.96841
2417.88526,0.95789
2415.84646,0.95845
2413.80765,0.94745
2411.76884,0.94267
2409.73003,0.92661
2407.69123,0.92237
2405.65242,0.91289
2403.61361,0.91331
2401.57480,0.90169
2399.53600,0.89725
2397.49719,0.88184
2395.45838,0.87774
2393.41957,0.86469
2391.38076,0.85904
2389.34196,0.84249
2387.30315,0.83695
2385.26434,0.82281
2383.22553,0.81908
2381.18673,0.80157
2379.14792,0.78753
2377.10911,0.76529
2375.07030,0.76017
2373.03150,0.74808
2370.99269,0.74448
2368.95388,0.72861
2366.91507,0.72189
2364.87627,0.70867
2362.83746,0.71185
2360.79865,0.71081
2358.75984,0.71789
2356.72103,0.70968
2354.68223,0.70775
2352.64342,0.69929
2350.60461,0.70669
2348.56580,0.69587
2346.52700,0.67939
2344.48819,0.66199
2342.44938,0.67502
2340.41057,0.67417
2338.37177,0.66314
2336.33296,0.63345
2334.29415,0.62411
2332.25534,0.62187
2330.21654,0.63794
2328.17773,0.64117
2326.13892,0.64811
2324.10011,0.63985
2322.06130,0.63648
2320.02250,0.62159
2317.98369,0.62027
2315.94488,0.61088
2313.90607,0.61007
2311.86727,0.60084
2309.82846,0.60455
2307.78965,0.59665
2305.75084,0.59423
2303.71204,0.57977
2301.67323,0.57630
2299.63442,0.56551
2297.59561,0.56776
2295.55681,0.56074
2293.51800,0.56135
2291.47919,0.54856
2289.44038,0.54373
2287.40157,0.52910
2285.36277,0.52733
2283.32396,0.51736
2281.28515,0.51673
2279.24634,0.50487
2277.20754,0.50245
2275.16873,0.49203
2273.12992,0.49480
2271.09111,0.48803
2269.05231,0.49048
2267.01350,0.48013
2264.97469,0.47537
2262.93588,0.45987
2260.89708,0.45740
2258.85827,0.44643
2256.81946,0.44486
2254.78065,0.43481
2252.74184,0.44022
2250.70304,0.44001
2248.66423,0.44773
2246.62542,0.44082
2244.58661,0.44109
2242.54781,0.42957
2240.50900,0.42943
2238.47019,0.42289
2236.43138,0.42687
2234.39258,0.41935
2232.35377,0.42334
2230.31496,0.41750
2228.27615,0.41910
2226.23735,0.40959
2224.19854,0.40944
2222.15973,0.39884
2220.12092,0.40070
2218.08211,0.39669
2216.04331,0.40360
2214.00450,0.39880
2211.96569,0.40290
2209.92688,0.39775
2207.88808,0.40273
2205.84927,0.39657
2203.81046,0.40014
2201.77165,0.39386
2199.73285,0.39889
2197.69404,0.39828
2195.65523,0.40817
2193.61642,0.40398
2191.57762,0.40670
2189.53881,0.39979
2187.50000,0.40621
2185.46119,0.40482
2183.42238,0.41180
2181.38358,0.40901
2179.34477,0.41688
2177.30596,0.41433
2175.26715,0.42158
2173.22835,0.41784
2171.18954,0.42200
2169.15073,0.41774
2167.11192,0.42361
2165.07312,0.41768
2163.03431,0.42439
2160.99550,0.42440
2158.95669,0.43327
2156.91789,0.43002
2154.87908,0.43678
2152.84027,0.43538
2150.80146,0.44222
2148.76265,0.43755
2146.72385,0.44514
2144.68504,0.44229
2142.64623,0.44610
2140.60742,0.44225
2138.56862,0.45276
2136.52981,0.45503
2134.49100,0.46419
2132.45219,0.45851
2130.41339,0.46446
2128.37458,0.46510
2126.33577,0.47408
2124.29696,0.46981
2122.25816,0.47640
2120.21935,0.47569
2118.18054,0.48576
2116.14173,0.48357
2114.10292,0.48950
2112.06412,0.48737
2110.02531,0.49634
2107.98650,0.49193
2105.94769,0.49615
2103.90889,0.49412
2101.87008,0.50214
2099.83127,0.49744
2097.79246,0.50410
2095.75366,0.50065
2093.71485,0.50424
2091.67604,0.49609
2089.63723,0.50180
2087.59843,0.50305
2085.55962,0.51568
2083.52081,0.51354
2081.48200,0.51683
2079.44319,0.50892
2077.40439,0.51157
2075.36558,0.50480
2073.32677,0.51132
2071.28796,0.50776
2069.24916,0.51160
2067.21035,0.50397
2065.17154,0.50775
2063.13273,0.50391
2061.09393,0.51287
2059.05512,0.50852
2057.01631,0.50961
2054.97750,0.50121
2052.93870,0.50836
2050.89989,0.50617
2048.86108,0.51009
2046.82227,0.49807
2044.78346,0.49511
2042.74466,0.48386
2040.70585,0.48709
2038.66704,0.48218
2036.62823,0.48737
2034.58943,0.48079
2032.55062,0.48381
2030.51181,0.47403
2028.47300,0.47395
2026.43420,0.46429
2024.39539,0.46683
2022.35658,0.45926
2020.31777,0.46191
2018.27897,0.45249
2016.24016,0.45380
2014.20135,0.44374
2012.16254,0.44224
2010.12373,0.42879
2008.08493,0.42750
2006.04612,0.41707
2004.00731,0.41877
2001.96850,0.41117
1999.92970,0.41460
1997.89089,0.40560
1995.85208,0.40653
1993.81327,0.39579
1991.77447,0.39828
1989.73566,0.39184
1987.69685,0.39411
1985.65804,0.38324
1983.61924,0.38227
1981.58043,0.37350
1979.54162,0.37667
1977.50281,0.36322
1975.46400,0.35836
1973.42520,0.34889
1971.38639,0.35653
1969.34758,0.35213
1967.30877,0.35589
1965.26997,0.34824
1963.23116,0.34837
1961.19235,0.33628
1959.15354,0.33709
1957.11474,0.32693
1955.07593,0.32673
1953.03712,0.31338
1950.99831,0.30974
1948.95951,0.29768
1946.92070,0.29846
1944.88189,0.28648
1942.84308,0.28848
1940.80427,0.28433
1938.76547,0.28389
1936.72666,0.26456
1934.68785,0.25802
1932.64904,0.24532
1930.61024,0.24500
1928.57143,0.23356
1926.53262,0.23285
1924.49381,0.21854
1922.45501,0.21647
1920.41620,0.20228
1918.37739,0.19731
1916.33858,0.18810
1914.29978,0.18977
1912.26097,0.17721
1910.22216,0.17479
1908.18335,0.16323
1906.14454,0.16251
1904.10574,0.15011
1902.06693,0.14981
1900.02812,0.14076
1897.98931,0.14183
1895.95051,0.13211
1893.91170,0.13549
1891.87289,0.12663
1889.83408,0.12767
1887.79528,0.12153
1885.75647,0.12060
1883.71766,0.10520
1881.67885,0.10502
1879.64004,0.09866
1877.60124,0.10012
1875.56243,0.08899
1873.52362,0.08870
1871.48481,0.07327
1869.44601,0.06698
1867.40720,0.06142
1865.36839,0.06905
1863.32958,0.06030
1861.29078,0.05738
1859.25197,0.04633
1857.21316,0.04910
1855.17435,0.04258
1853.13555,0.04514
1851.09674,0.03698
1849.05793,0.03581
1847.01912,0.02011
1844.98031,0.01634
1842.94151,0.01566
1840.90270,0.02596
1838.86389,0.02091
1836.82508,0.02433
1834.78628,0.01739
1832.74747,0.01484
1830.70866,0.00371
1828.66985,0.00934
1826.63105,0.00537
1824.59224,0.00961
1822.55343,0.00564
1820.51462,0.00711
1818.47582,0.00000
1816.43701,0.00380
1814.39820,0.00032
1812.35939,0.00400
1810.32058,-0.00047
1808.28178,0.00299
1806.24297,-0.00069
1804.20416,0.00134
1802.16535,-0.00005
1800.12655,0.01418
1798.08774,0.02413
1796.04893,0.03715
1794.01012,0.03589
1791.97132,0.04224
1789.93251,0.03856
1787.89370,0.03352
1785.85489,0.02075
1783.81609,0.02186
1781.77728,0.01544
1779.73847,0.01648
1777.69966,0.01257
1775.66085,0.01241
1773.62205,0.00333
1771.58324,0.00811
1769.54443,0.01012
1767.50562,0.01518
1765.46682,0.00949
1763.42801,0.00757
1761.38920,0.00572
1759.35039,0.01249
1757.31159,0.01060
1755.27278,0.01157
1753.23397,0.00000
1751.19516,0.00028
1749.15636,0.00878
1747.11755,0.02797
1745.07874,0.03927
1743.03993,0.04895
1741.00112,0.04898
1738.96232,0.05839
1736.92351,0.06125
1734.88470,0.07567
1732.84589,0.09932
1730.80709,0.12542
1728.76828,0.14099
1726.72947,0.15812
1724.69066,0.17014
1722.65186,0.18886
1720.61305,0.20004
1718.57424,0.21995
1716.53543,0.24997
1714.49663,0.28764
1712.45782,0.31682
1710.41901,0.34984
1708.38020,0.38232
1706.34139,0.42275
1704.30259,0.46334
1702.26378,0.50946
1700.22497,0.55615
1698.18616,0.60136
1696.14736,0.63752
1694.10855,0.67961
1692.06974,0.71230
1690.03093,0.74744
1687.99213,0.78172
1685.95332,0.81794
1683.91451,0.85370
1681.87570,0.90100
1679.83690,0.94459
1677.79809,0.99180
1675.75928,1.02881
1673.72047,1.06686
1671.68166,1.09692
1669.64286,1.12141
1667.60405,1.12965
1665.56524,1.13554
1663.52643,1.12256
1661.48763,1.10708
1659.44882,1.08584
1657.41001,1.07593
1655.37120,1.05526
1653.33240,1.03635
1651.29359,1.01629
1649.25478,0.99686
1647.21597,0.96660
1645.17717,0.95428
1643.13836,0.93724
1641.09955,0.92434
1639.06074,0.90521
1637.02193,0.89198
1634.98313,0.87102
1632.94432,0.85362
1630.90551,0.81701
1628.86670,0.78725
1626.82790,0.75876
1624.78909,0.74043
1622.75028,0.71340
1620.71147,0.69148
1618.67267,0.65465
1616.63386,0.63660
1614.59505,0.62634
1612.55624,0.61948
1610.51744,0.60093
1608.47863,0.59615
1606.43982,0.58945
1604.40101,0.58856
1602.36220,0.57870
1600.32340,0.57760
1598.28459,0.57428
1596.24578,0.58281
1594.20697,0.58839
1592.16817,0.60432
1590.12936,0.61831
1588.09055,0.64223
1586.05174,0.65847
1584.01294,0.67784
1581.97413,0.69005
1579.93532,0.70873
1577.89651,0.71534
1575.85771,0.72583
1573.81890,0.73431
1571.78009,0.75262
1569.74128,0.77127
1567.70247,0.79995
1565.66367,0.81505
1563.62486,0.83612
1561.58605,0.85496
1559.54724,0.88438
1557.50844,0.90983
1555.46963,0.92846
1553.43082,0.92139
1551.39201,0.91329
1549.35321,0.89372
1547.31440,0.87861
1545.27559,0.85186
1543.23678,0.83127
1541.19798,0.79373
1539.15917,0.75998
1537.12036,0.72196
1535.08155,0.69244
1533.04274,0.66478
1531.00394,0.65542
1528.96513,0.63506
1526.92632,0.62385
1524.88751,0.61389
1522.84871,0.61657
1520.80990,0.61146
1518.77109,0.60980
1516.73228,0.59358
1514.69348,0.58517
1512.65467,0.56879
1510.61586,0.56410
1508.57705,0.55688
1506.53825,0.56497
1504.49944,0.56336
1502.46063,0.55796
1500.42182,0.53847
1498.38301,0.52947
1496.34421,0.51955
1494.30540,0.52230
1492.26659,0.51315
1490.22778,0.51142
1488.18898,0.51036
1486.15017,0.52262
1484.11136,0.52802
1482.07255,0.54179
1480.03375,0.55192
1477.99494,0.57371
1475.95613,0.59363
1473.91732,0.62205
1471.87852,0.63930
1469.83971,0.65954
1467.80090,0.66476
1465.76209,0.67364
1463.72328,0.67993
1461.68448,0.69845
1459.64567,0.70538
1457.60686,0.71484
1455.56805,0.71495
1453.52925,0.71830
1451.49044,0.70768
1449.45163,0.70539
1447.41282,0.69641
1445.37402,0.69539
1443.33521,0.68119
1441.29640,0.67303
1439.25759,0.65492
1437.21879,0.64631
1435.17998,0.63306
1433.14117,0.62809
1431.10236,0.61042
1429.06355,0.60365
1427.02475,0.59073
1424.98594,0.58762
1422.94713,0.57600
1420.90832,0.56763
1418.86952,0.54583
1416.83071,0.53832
1414.79190,0.52099
1412.75309,0.50890
1410.71429,0.48873
1408.67548,0.48264
1406.63667,0.46745
1404.59786,0.46417
1402.55906,0.45654
1400.52025,0.45733
1398.48144,0.44574
1396.44263,0.44186
1394.40382,0.42950
1392.36502,0.42932
1390.32621,0.41827
1388.28740,0.41589
1386.24859,0.40669
1384.20979,0.40752
1382.17098,0.39727
1380.13217,0.39579
1378.09336,0.38411
1376.05456,0.38020
1374.01575,0.36701
1371.97694,0.36517
1369.93813,0.35129
1367.89933,0.34394
1365.86052,0.32537
1363.82171,0.31650
1361.78290,0.30155
1359.74409,0.29818
1357.70529,0.28591
1355.66648,0.28616
1353.62767,0.28172
1351.58886,0.29034
1349.55006,0.29067
1347.51125,0.29870
1345.47244,0.29871
1343.43363,0.31263
1341.39483,0.32010
1339.35602,0.33564
1337.31721,0.33780
1335.27840,0.34108
1333.23960,0.33117
1331.20079,0.33310
1329.16198,0.32536
1327.12317,0.32177
1325.08436,0.30656
1323.04556,0.30324
1321.00675,0.29385
1318.96794,0.29585
1316.92913,0.28897
1314.89033,0.28873
1312.85152,0.27522
1310.81271,0.27102
1308.77390,0.25922
1306.73510,0.25743
1304.69629,0.24640
1302.65748,0.24449
1300.61867,0.23373
1298.57987,0.23560
1296.54106,0.23256
1294.50225,0.24024
1292.46344,0.23900
1290.42463,0.24864
1288.38583,0.25290
1286.34702,0.26698
1284.30821,0.26762
1282.26940,0.27405
1280.23060,0.27285
1278.19179,0.28019
1276.15298,0.27567
1274.11417,0.27865
1272.07537,0.27190
1270.03656,0.27418
1267.99775,0.26844
1265.95894,0.27291
1263.92013,0.26936
1261.88133,0.27568
1259.84252,0.27395
1257.80371,0.28204
1255.76490,0.28530
1253.72610,0.30454
1251.68729,0.31706
1249.64848,0.33534
1247.60967,0.34550
1245.57087,0.36630
1243.53206,0.37746
1241.49325,0.39645
1239.45444,0.40606
1237.41564,0.42177
1235.37683,0.42174
1233.33802,0.42459
1231.29921,0.41499
1229.26040,0.41377
1227.22160,0.39989
1225.18279,0.39248
1223.14398,0.37433
1221.10517,0.36835
1219.06637,0.35393
1217.02756,0.34752
1214.98875,0.33298
1212.94994,0.33781
1210.91114,0.34034
1208.87233,0.35671
1206.83352,0.36637
1204.79471,0.38381
1202.75591,0.38461
1200.71710,0.39147
1198.67829,0.38523
1196.63948,0.38488
1194.60067,0.37111
1192.56187,0.36782
1190.52306,0.35571
1188.48425,0.35302
1186.44544,0.33392
1184.40664,0.32443
1182.36783,0.30983
1180.32902,0.30987
1178.29021,0.29799
1176.25141,0.29655
1174.21260,0.28579
1172.17379,0.28854
1170.13498,0.28267
1168.09618,0.28785
1166.05737,0.27987
1164.01856,0.28458
1161.97975,0.28521
1159.94094,0.29771
1157.90214,0.29243
1155.86333,0.29331
1153.82452,0.28034
1151.78571,0.27534
1149.74691,0.25901
1147.70810,0.25571
1145.66929,0.24057
1143.63048,0.23831
1141.59168,0.22470
1139.55287,0.22147
1137.51406,0.20886
1135.47525,0.20816
1133.43645,0.19367
1131.39764,0.19155
1129.35883,0.18080
1127.32002,0.18441
1125.28121,0.17700
1123.24241,0.17872
1121.20360,0.16771
1119.16479,0.16884
1117.12598,0.15825
1115.08718,0.15855
1113.04837,0.14777
1111.00956,0.14772
1108.97075,0.13626
1106.93195,0.14012
1104.89314,0.13655
1102.85433,0.14336
1100.81552,0.13611
1098.77672,0.14170
1096.73791,0.14036
1094.69910,0.15165
1092.66029,0.15284
1090.62148,0.16666
1088.58268,0.17198
1086.54387,0.19017
1084.50506,0.19640
1082.46625,0.21042
1080.42745,0.21046
1078.38864,0.21981
1076.34983,0.21606
1074.31102,0.21930
1072.27222,0.20867
1070.23341,0.21385
1068.19460,0.21231
1066.15579,0.22176
1064.11699,0.22095
1062.07818,0.23343
1060.03937,0.23158
1058.00056,0.23668
1055.96175,0.22520
1053.92295,0.22275
1051.88414,0.20757
1049.84533,0.20548
1047.80652,0.19614
1045.76772,0.20363
1043.72891,0.19937
1041.69010,0.20290
1039.65129,0.19273
1037.61249,0.20060
1035.57368,0.20593
1033.53487,0.22578
1031.49606,0.22678
1029.45726,0.23539
1027.41845,0.23310
1025.37964,0.23975
1023.34083,0.22467
1021.30202,0.21872
1019.26322,0.20593
1017.22441,0.21269
1015.18560,0.20597
1013.14679,0.20797
1011.10799,0.19778
1009.06918,0.20042
1007.03037,0.18732
1004.99156,0.18786
1002.95276,0.17623
1000.91395,0.17846
998.87514,0.16643
996.83633,0.16368
994.79753,0.14408
992.75872,0.13780
990.71991,0.12078
988.68110,0.12037
986.64229,0.10514
984.60349,0.10456
982.56468,0.09593
980.52587,0.10076
978.48706,0.09142
976.44826,0.10059
974.40945,0.10179
972.37064,0.11533
970.33183,0.10807
968.29303,0.10688
966.25422,0.09208
964.21541,0.09524
962.17660,0.08685
960.13780,0.09137
958.09899,0.08572
956.06018,0.09560
954.02137,0.08763
951.98256,0.08886
949.94376,0.07762
947.90495,0.08250
945.86614,0.07540
943.82733,0.08443
941.78853,0.08343
939.74972,0.09409
937.71091,0.08487
935.67210,0.08750
933.63330,0.08151
931.59449,0.08943
929.55568,0.07823
927.51687,0.07847
925.47807,0.06769
923.43926,0.07450
921.40045,0.07147
919.36164,0.08195
917.32283,0.07519
915.28403,0.07803
913.24522,0.06173
911.20641,0.05792
909.16760,0.04548
907.12880,0.05106
905.08999,0.04102
903.05118,0.04301
901.01237,0.03372
898.97357,0.03850
896.93476,0.02867
894.89595,0.03278
892.85714,0.02127
890.81834,0.01986
888.77953,0.00325
886.74072,0.00328
884.70191,0.00000
882.66310,0.02222
880.62430,0.04839
878.58549,0.09484
876.54668,0.12088
874.50787,0.13662
872.46907,0.11589
870.43026,0.09776
868.39145,0.07064
866.35264,0.06584
864.31384,0.04993
862.27503,0.05244
860.23622,0.04544
858.19741,0.04859
856.15861,0.03549
854.11980,0.03792
852.08099,0.02926
850.04218,0.03630
848.00337,0.02979
845.96457,0.03546
843.92576,0.02867
841.88695,0.03240
839.84814,0.01517
837.80934,0.01185
835.77053,0.00000
833.73172,0.00500
831.69291,0.00176
829.65411,0.01353
827.61530,0.00796
825.57649,0.01246
823.53768,0.00240
821.49888,0.00623
819.46007,-0.00043
817.42126,0.00652
815.38245,-0.00315
813.34364,0.00283
811.30484,0.00090
809.26603,0.00948
807.22722,0.00000
805.18841,0.00408
803.14961,-0.00121
801.11080,0.00820
799.07199,0.00398
797.03318,0.01385
794.99438,0.00894
792.95557,0.00979
790.91676,-0.00454
788.87795,0.00037
786.83915,-0.00270
784.80034,0.00874
782.76153,0.00791
780.72272,0.01917
778.68391,0.01128
776.64511,0.01094
774.60630,0.00076
772.56749,0.01151
770.52868,0.01012
768.48988,0.01912
766.45107,0.01627
764.41226,0.02645
762.37345,0.02002
760.33465,0.02444
758.29584,0.01913
756.25703,0.02828
754.21822,0.02236
752.17942,0.03164
750.14061,0.02523
748.10180,0.02996
746.06299,0.02778
744.02418,0.04012
741.98538,0.03441
739.94657,0.04156
737.90776,0.04072
735.86895,0.05413
733.83015,0.04836
731.79134,0.05114
729.75253,0.04445
727.71372,0.05624
725.67492,0.04976
723.63611,0.05446
721.59730,0.05104
719.55849,0.06404
717.51969,0.06001
715.48088,0.06752
713.44207,0.06197
711.40326,0.07077
709.36445,0.06374
707.32565,0.07187
705.28684,0.06841
703.24803,0.07866
701.20922,0.07342
699.17042,0.08179
697.13161,0.07339
695.09280,0.07811
693.05399,0.06973
691.01519,0.07919
688.97638,0.07367
686.93757,0.07915
684.89876,0.07104
682.85996,0.08429
680.82115,0.08138
678.78234,0.08755
676.74353,0.08060
674.70472,0.09259
672.66592,0.08576
670.62711,0.08871
668.58830,0.07696
666.54949,0.08741
664.51069,0.08684
662.47188,0.10444
660.43307,0.10212
658.39426,0.10602
656.35546,0.09015
654.31665,0.09564
652.27784,0.08862
650.23903,0.09809
648.20022,0.09088
646.16142,0.10129
644.12261,0.09401
642.08380,0.10192
640.04499,0.09125
638.00619,0.09910
635.96738,0.09229
633.92857,0.10130
631.88976,0.08942
629.85096,0.09895
627.81215,0.10009
625.77334,0.11871
623.73453,0.10837
621.69573,0.11167
619.65692,0.10066
617.61811,0.11145
615.57930,0.10142
613.54049,0.10555
611.50169,0.08769
609.46288,0.09500
607.42407,0.08672
605.38526,0.09813
603.34646,0.09067
601.30765,0.10125
599.26884,0.09322
597.23003,0.11089
595.19123,0.11070
593.15242,0.12874
591.11361,0.11770
589.07480,0.11732
587.03600,0.10032
584.99719,0.11334
582.95838,0.10150
580.91957,0.11003
578.88076,0.10176
576.84196,0.11767
574.80315,0.11414
572.76434,0.12955
570.72553,0.10919
568.68673,0.10819
566.64792,0.09097
564.60911,0.10597
562.57030,0.10280
560.53150,0.12389
558.49269,0.11473
556.45388,0.12146
554.41507,0.10233
552.37627,0.11398
550.33746,0.10071
548.29865,0.11256
546.25984,0.09881
544.22103,0.11122
542.18223,0.09586
540.14342,0.10871
538.10461,0.09300
536.06580,0.10431
534.02700,0.09349
531.98819,0.11463
529.94938,0.10232
527.91057,0.11199
525.87177,0.08963
523.83296,0.10036
521.79415,0.07911
519.75534,0.09032
517.71654,0.07493
515.67773,0.09157
513.63892,0.08026
511.60011,0.10591
509.56130,0.09029
507.52250,0.09881
505.48369,0.07333
503.44488,0.08596
501.40607,0.06513
499.36727,0.07933
497.32846,0.05869
495.28965,0.07634
493.25084,0.05444
491.21204,0.07181
489.17323,0.06080
487.13442,0.08917
485.09561,0.06964
483.05681,0.08662
481.01800,0.06579
478.97919,0.08430
476.94038,0.06629
474.90157,0.09526
472.86277,0.07719
470.82396,0.10172
468.78515,0.08027
466.74634,0.09335
464.70754,0.04655
462.66873,0.05898
460.62992,0.03928
458.59111,0.07543
456.55231,0.06228
454.51350,0.09625
452.47469,0.06616
450.43588,0.08176
448.39708,0.04446
446.35827,0.07958
444.31946,0.06447
442.28065,0.10158
440.24184,0.06450
438.20304,0.08459
436.16423,0.03923
434.12542,0.07370
432.08661,0.04607
430.04781,0.09090
428.00900,0.05628
425.97019,0.09506
423.93138,0.05720
421.89258,0.09869
419.85377,0.02463
417.81496,0.04820
415.77615,0.00000
413.73735,0.06225
411.69854,0.01859
409.65973,0.06807
407.62092,-0.00075
405.58211,0.05961
403.54331,0.00959
401.50450,0.09432
399.46569,0.02790
397.42688,0.09478
395.38808,-0.01146
393.34927,0.08431
391.31046,-0.01211
389.27165,0.11475
387.23285,0.00259
385.19404,0.18046
383.15523,0.01743
381.11642,0.28341
379.07762,0.01283
377.03881,0.52716
375.00000,0.00000
